,heart_rate,hrv_rmssd,hrv_sdnn,avg_movement,max_movement,movement_variability
0,102.15772870662462,133.71398636485137,95.5148755687437,9.775635749449405,10.10285463073327,0.06667318315364947
1,71.26566416040099,176.46555688279304,118.02180200569309,9.95428917484963,10.124442856856506,0.0757431368587274
2,102.76315789473684,94.09051508770207,64.3907347538036,9.803686905455992,10.079748871650036,0.06630565228443677
3,71.05531914893616,136.57127749799912,97.21702665087086,9.866745193891786,10.048738990861864,0.057199502397831094
4,74.1111111111111,179.0029684457273,122.65079487928735,9.850229674789157,10.037380928900921,0.06794002573398064
5,81.29368029739778,87.35629992954667,83.12204356180183,10.071100623103778,10.227045910161694,0.05768687997148442
6,68.10521955260978,134.76705648925423,102.38917910187953,9.807913425420388,9.987737339433782,0.05868449678399181
7,62.28305582761998,132.5215301818722,97.71798256262599,9.609286781676769,9.736100903636562,0.05886658395739396
8,70.25263157894739,116.3802888219555,86.87835409650461,9.822963147897902,10.126602922289146,0.08810461939877591
9,86.96875,217.3142926062534,132.2929054438023,9.790199368731095,10.162167078910574,0.061786405423718986
10,69.49999999999999,149.98557267326237,105.23928631942636,9.95707629626772,10.161721260578924,0.05938326801158199
11,88.50521920668061,129.7894551168688,99.49766097571873,9.772834866689188,9.969060166426956,0.05749762495664965
12,103.31081081081084,125.36683084026697,84.18254263499857,9.816238294989006,10.011318906353635,0.06421747745012563
13,58.746130030959755,251.63128133475354,151.5149223805336,9.703439386261094,9.89548900431398,0.05954294146690969
14,53.14660831509847,270.1323920133422,164.1439386401207,9.72131300924878,9.922073775791294,0.0650763935828106
15,85.29384965831436,146.6617072176446,98.32798422819523,9.90543308599976,10.749549202497711,0.09347956381567442
16,73.78048780487809,191.55963785288102,132.2912665986315,9.77724002791113,10.034205996685477,0.07552059194409405
17,64.75764705882355,180.58933384484288,148.6452490405998,9.685073807980563,9.88225377400946,0.06568054873423902
18,79.42857142857143,192.64258012243675,145.7090503438848,9.77065954771072,9.921211182666157,0.04928277988801229
19,64.436974789916,170.4051703929744,128.66582173852547,9.88500607348566,10.08698404253742,0.049755485062491486
20,76.2191887675507,162.35620118827896,117.40916425253992,9.829489422099497,10.016725881255837,0.0707608548839405
21,80.05235602094241,186.5511731694657,140.66800519765795,9.637198007890097,9.78575703100982,0.059935032555559764
22,77.43612334801763,82.76110093839239,74.7569475069983,9.705296992914855,10.004758205275468,0.08374929713701798
23,71.85727355901192,154.32937295746407,117.3291469197738,9.927958442666927,10.081793998286944,0.05336267797216161
24,69.205153617443,191.88315880198869,135.2745533846575,9.774836251335147,10.004066213987127,0.06658855498622672
25,76.33620689655173,157.50506409639178,119.75697555370054,9.858740173841397,10.029442570193075,0.053727012963537546
26,64.62928348909658,201.97246003630949,141.60581530495352,9.770811365516147,10.067644125938306,0.06892301232541649
27,67.64869151467089,132.86339077282463,107.11852637857467,9.759059519037686,9.918775059386196,0.047298162735639186
28,60.96385542168675,153.08234569989793,105.24527237703043,9.876654570194487,10.060286841251973,0.05463098975751903
29,69.77319587628867,157.80817502546793,111.18060163585417,9.851471957995187,10.044389038649527,0.0546140004487983
30,86.54716981132076,123.46997558576015,85.09329479288733,9.736615952889837,9.93742113814157,0.07592919427018037
31,60.210526315789465,120.08598707082419,105.97065259682603,9.810509113071246,9.969999306751458,0.05455776966915258
32,84.58297872340427,141.19994191019,94.45742781598645,9.919955645168463,10.067029683891409,0.04767543296501672
33,68.87387387387388,117.72400261608902,94.17920209287115,9.668759859565817,10.492431401301664,0.09303564339484975
34,66.89120370370371,133.80128530205513,99.13300948401144,9.936290713633612,10.10413266977955,0.050398854712372605
35,68.73626373626375,145.80442648533648,103.70922169483148,9.854289042384861,10.027613663331502,0.09648448779079852
36,68.82292557741658,137.30944164057124,98.4526442282601,9.676540473622888,9.894770275893782,0.06916997784937381
37,63.781512605042025,291.794922139,143.38622250764473,9.883029712686913,10.099959708690873,0.05545028054975285
38,78.8780487804878,147.91753862973124,142.07190886142226,9.759242449100986,9.95333081033231,0.047963025755621606
39,72.50488145048816,221.98250815535826,158.7920237000011,9.864001205024804,10.051366699858384,0.07758149271013483
40,67.57928571428572,136.72313926520113,114.33469095715574,9.87802573514664,10.040537821013839,0.06113759300282701
41,62.87837837837837,220.0142328436107,143.30181025720742,9.664142971675373,9.81423365206258,0.05713586073391591
42,87.52883031301482,137.1924121523954,146.96599421793283,9.965656467779931,10.231469229190749,0.07156481062133449
43,65.94378194207836,145.1668882301905,101.29874948458193,9.912169760211087,10.094886439721213,0.06663580261072308
44,75.13806552262089,107.15212843808047,80.68137863133927,9.692660745630807,9.793785048009926,0.09389368480792076
45,67.2,133.98099501887742,107.15159811657648,9.76409340320278,9.9362711171245,0.06879510603984663
46,75.68693693693693,101.72870788168754,83.6941923225565,9.840070069717171,10.07406966964338,0.07881013970566082
47,108.5433447098976,93.79312040654196,72.01090725819807,9.93955504043399,10.130862965228618,0.08275587194900075
48,84.010989010989,112.35077768814433,89.0239347399532,10.061175927157118,10.198849231695252,0.04167528805530965
49,82.22500000000001,193.77460885937822,127.79487395275657,9.782415460013269,10.017817299521973,0.06907084480739897
50,76.09007352941178,198.33204442763565,138.31721830285267,9.895224100571077,10.085122778252968,0.059617561934071854
51,55.903682719546744,350.4772302562885,178.0149731627175,9.831634253851496,11.02154901880952,0.12021575510121982
52,51.02521008403362,279.0892909374906,175.82269910899865,9.86967530477594,11.10224523533344,0.0737991963217273
53,89.20731707317073,195.66908017297877,159.3131204338075,9.653704848409252,9.817765707502799,0.05302448265160053
54,71.79729729729729,215.7682855961452,163.55447044562666,9.701983046648477,9.900277844263625,0.06694757164323191
55,74.02183406113537,128.36344917753536,115.36222345896115,9.710943204033107,9.925635957075215,0.07133744756553902
56,85.1938775510204,138.125871739564,115.93435720374903,9.664471383113302,10.152715909167318,0.06164843662962633
57,95.77287066246056,215.9750592761748,142.66256223931973,10.098356972894216,10.32302169570795,0.06254010584659293
58,53.91028037383179,165.81958073836392,146.9227674891581,9.765339568508068,11.435575898765066,0.08605677187928976
59,79.6340493237868,109.50755316276775,77.10165190113314,9.88334458434601,10.070122343223897,0.06095089108501041
60,62.92227979274611,105.14816944840733,121.7261363118075,9.723614201777956,10.361593608734625,0.14048368740497544
61,62.333333333333336,187.75267283766652,154.38710324253927,9.989742403466892,10.163336607604483,0.061757692873342755
62,69.6476683937824,167.31256292776698,124.45777756725587,9.561033778204122,9.833894510922164,0.06860368865187008
63,98.56617002629274,136.1835248241462,101.35875034657799,9.873425646913363,10.118042441780142,0.05555988233263045
64,73.86091127098324,74.15547295026803,59.43953104828192,9.832286843656833,9.99332029195621,0.045302652909466765
65,91.87894736842104,152.6680490114291,111.10658102934947,9.887385170259444,10.557491659046772,0.1042277916554637
66,104.68965517241378,205.10967009543953,146.80724411851688,9.754862620076219,10.28474826637658,0.07334889024954079
67,81.1145038167939,135.67056605866134,105.50262719549421,10.048297529846211,10.235074420589896,0.05505305744718105
68,63.90804597701149,174.21418885426002,133.76273777953838,9.852785019951476,9.992008954912235,0.05861298734765224
69,70.01144726083402,145.10525017895674,110.68778992031558,9.758333467007006,10.114060974076317,0.06972057423083226
70,65.84096385542169,76.30887740422314,102.45571495202637,9.852020826533044,10.193374355194996,0.060732004865950664
71,56.22222222222223,155.69374678057517,175.3251852488293,10.12940734823217,10.317671393718262,0.06869181914608279
72,77.88864628820961,259.8251667261107,174.46879125240855,9.73529161947705,9.886714805194305,0.06551482893623747
73,92.13294797687863,224.83533305550023,127.71086357001599,10.03496322065618,10.233214843715848,0.05937314590660958
74,83.14134275618375,242.8499155621444,178.4575814837813,9.80127712606999,10.067639860589976,0.0737062198712912
75,82.29959514170042,138.22225147442452,92.18995242438052,9.884764125321203,10.071845540647814,0.07568301960336403
76,57.7780612244898,181.33577803393055,181.43112301508114,9.920205259766382,10.136101812163757,0.054426493884883125
77,55.1487826871055,188.77837885246458,143.91127351939681,9.848636697487725,10.200858833785299,0.06286969855511194
78,72.85,151.15708092409895,97.36773795785192,9.821063700736493,10.017508090708338,0.06795455673232356
79,69.5336787564767,135.36608356603315,99.72810003465277,9.745059990099229,9.929787541307894,0.05794861872812463
80,67.38509968520462,120.76254092589538,98.9362364358031,9.856795285308847,10.059946211837987,0.0645406908387318
81,77.3142857142857,116.82028057040846,87.19112352912379,9.552248257008708,9.72224125529833,0.057505497339590865
82,76.92094455852155,209.6847449829483,138.825716341424,9.84210489813876,10.036507280876103,0.059178004289092756
83,80.53979238754326,175.80618803265213,119.70801438629701,9.77598447375886,9.954480298422954,0.05875318358202958
84,81.21458923512748,97.3543382544885,82.4063865780022,9.78187197973767,9.973040603986947,0.059360765330493066
85,74.6101438304315,116.9912919334644,96.51393002330596,9.777415062849736,9.946364029354134,0.046132845397750734
86,57.283018867924525,474.3083003952569,180.04809444949208,9.92100877361126,10.17736757163795,0.06392779250645038
87,77.07284768211923,112.37629847978904,132.09059185822738,9.776086464512334,9.95445225844653,0.05676312089923897
88,80.3561116458133,79.69321842706269,68.53213540140649,9.953267513776913,10.171254904019209,0.06213227294904005
89,89.97264437689968,118.08809538646244,120.1475298390274,9.706629311891518,9.956061912807876,0.06958805479961595
90,106.52868852459018,300.5657369019243,155.7727032859892,9.847561947079074,10.026464707724877,0.059506257391450317
91,79.060014461316,91.49750540730844,75.93754803236534,9.85971827865454,10.083386589547532,0.05442942949980251
92,60.0,173.41826852553598,145.81712842447993,9.738675031883677,9.95219981515292,0.06108535301551819
93,65.5251798561151,88.38213349801555,70.02731101933236,9.724731618324883,9.93679187338618,0.06509250188289524
94,84.77421509686039,132.57900738635075,90.64699758688324,9.736952441153434,10.003833989498363,0.07261298890652307
95,74.32477341389732,106.39867742504191,94.95576959964747,9.868336155904547,10.077299796690214,0.08107903629944453
96,56.70204603580562,189.49209927657054,133.3659050846883,9.88758680542097,10.031325153057724,0.053545055484988474
97,66.02158979391561,163.63631135640028,115.30397486410111,9.937338497111462,10.087448843775936,0.05640727573056413
98,71.70452261306532,147.46271693083614,102.26719443989742,9.787630607670032,9.970488799111914,0.05783781873908959
99,55.80882352941177,39.52569169960475,205.22932783789992,9.584931621402681,9.798585027775278,0.06285265802631532
100,70.03811434302911,171.69089254929452,128.75343824794274,9.814090850342575,10.047843679540552,0.06480204648565363
101,57.551546391752574,170.27355883178302,154.37795706822985,9.894241332104793,10.095871367596267,0.06858002855924679
102,78.92014134275618,141.43827071407893,106.75544320127234,10.219724451861037,10.391918910029483,0.06573361273683137
103,68.72800000000002,193.05759600198306,126.11970050154675,9.814707441766386,10.019696138005848,0.07299938677456742
104,85.35167669819432,124.53617872077209,84.1877979538121,9.481291504990999,9.673924094576703,0.06949883681158768
105,75.13689095127611,163.71068376710213,126.96372792453016,9.791319013007348,10.011588488052688,0.06677907503101387
106,90.43404255319149,137.6322952290921,94.30151543822285,9.952774139275743,10.216453402778358,0.07172764934169795
107,105.68354430379748,106.52271366334185,75.67645945110225,9.936476880472062,10.151184464390644,0.08843962883209432
108,72.93385214007785,146.57687489656507,96.29711239751165,9.882625374978195,10.044012241955368,0.05668316783842076
109,48.1904761904762,462.63636010749497,258.9360211730375,9.771303814196617,11.171320852690585,0.10272410586024723
110,87.1065989847716,119.17343332584117,89.86706707365836,9.930893780393914,10.08162958561251,0.056727499005589266
111,90.2170542635659,105.19578012299942,78.31949726829929,9.66247770108426,12.13829719757902,0.1413324145724125
112,66.64543168482815,139.70087507557193,99.27761107990455,9.695272250597489,9.877003830343162,0.05524434689609706
113,54.591647331786554,245.62934976770504,177.73646403903226,9.996300985384998,10.19927356857553,0.06541867006735048
114,89.50471698113208,105.31946714999388,71.42093072527781,9.608580846831705,9.96492961238119,0.09523011384820242
115,72.90335051546393,176.367861773009,137.90758728400658,9.880632940393168,10.05623895127486,0.06249565750787081
116,64.19701986754966,164.33246340715422,113.27689140853349,9.717748791267898,9.864439899742257,0.05077955367527385
117,85.09694793536802,152.39402656154184,117.08252452133775,9.738939306242953,9.867402976466336,0.049580174632137104
118,76.78599221789884,137.67958342675234,101.84332152292016,9.699613457463292,10.171294308323503,0.08038759355664876
119,66.04966139954854,162.98571945469004,133.80728449275827,9.720556278089942,10.131358036878972,0.062047273950285774
120,103.90588235294118,102.10395019888708,77.37134825871,9.981366864294072,10.22125214271016,0.07993852883162339
121,71.50000000000001,318.70903391265153,142.6497820468012,9.695138863182498,9.844024628096651,0.05355070877986965
122,74.75456711675933,189.18356566422108,126.11285593552462,9.536058522714438,9.730746218234367,0.059468736265273964
123,96.61855670103094,304.88811523151486,157.46957588026683,9.706278663739106,9.882194749291536,0.04913875836875417
124,59.433962264150956,87.82306547698016,96.42705310701888,9.621941771962907,10.618022220165988,0.06546464834504512
125,66.04951237809452,148.37984985969393,108.24341952740625,9.948082150052148,10.42757572948714,0.06384687506972805
126,64.68749999999999,139.30242598529816,100.5469514009956,9.896420815508527,10.13540939667271,0.07633930196261772
127,84.33333333333333,197.29880279146164,138.8096673630137,9.702855119832886,9.936719415712355,0.06806598714396105
128,68.42870285188592,140.06903317437587,102.16110477688191,9.897087579731298,12.18418865270042,0.11579185425513858
129,94.08639705882352,241.36466208259137,133.03004042974788,0.0,0.0,0.0
130,86.94427244582042,156.6550981632953,129.82789105795825,9.843007780973467,10.033546209288629,0.0648776826436875
131,67.17557251908397,147.23587458926275,100.61740171601684,9.75866553818621,9.904497938217025,0.04892551168818935
132,80.12345679012347,151.95573637680985,108.09293131961549,9.763564732252082,9.961842804369306,0.046627827470878215
133,75.65853658536585,232.84400310771488,157.73217050580357,9.64119489987232,9.788883573130567,0.05482490045055167
134,68.06465067778936,199.77277217272925,136.26532188772072,9.722323088150734,9.898465417783108,0.05995084339195731
135,76.61420017108641,173.45997064674134,132.49319802116577,9.817069612787247,10.11218331927217,0.06570448201989586
136,74.0784,142.51190812110627,117.51897309831334,9.80673714635539,10.081554477375937,0.059315586714199904
137,89.18249999999999,118.60510419153493,137.24088563670236,9.95995912444635,10.121518400526856,0.07155738941922193
138,69.19934640522878,127.28678990014032,100.83944075149515,9.70065038756337,9.898725709253878,0.06316380762761928
139,64.34200459066565,154.63979586298672,118.78082894815677,9.774743683191632,9.930554761366574,0.06787689176760794
140,73.88523047977425,162.10372754940184,117.61232906371039,9.739800343434442,9.890576857523657,0.06600731054801788
141,101.36482084690553,239.0980691930821,193.7315212506387,9.795366677746822,9.991907100461255,0.06561092292536563
142,76.70744680851064,200.24616803123408,117.93665723368728,9.724943947114477,9.91906259722645,0.05739822739943155
143,72.82051282051283,139.89749836728254,112.52135521291262,9.73493677736885,9.904035101470168,0.05895724349337603
144,63.51469098277609,118.77419293139413,111.12322945614055,9.862834939047945,10.032932889077887,0.06889972479198783
145,61.51807228915663,116.13649997912525,89.59400212055019,9.882515834061117,10.104453464641264,0.05557991849545488
146,57.283018867924525,217.43035784752996,163.56665372773566,9.78978359273277,9.969749634139708,0.057419256112259065
147,82.87589928057554,134.97392218308588,109.74877495972818,10.183874818932527,10.326461300852095,0.04353635867509816
148,71.5634427684117,141.70759627842577,104.2228800665549,9.75736897615281,9.951049416335422,0.0630882092495117
149,98.13005272407733,118.66714156175637,78.60577018214741,9.772589485109668,9.978038897122344,0.06119683908193448
150,61.21565059144676,181.10630361095085,144.30042660853886,9.772001219887091,9.963132754176387,0.07052575636370911
151,71.09847198641764,148.9347746535748,92.11034120177911,9.777241803679424,9.941900104220833,0.06060049193882337
152,76.80357142857143,221.396803383479,157.8289955682598,9.701985378185567,9.8875226453968,0.06526223791180596
153,69.14873713751169,126.10497564353565,117.35283952326297,9.811585809294728,10.000494540346503,0.0720540412535756
154,89.7220447284345,170.505128095033,125.79209574236624,9.827406987226762,10.069962146497867,0.07024528523369948
155,85.31092436974791,145.53809564811763,98.69582964425506,9.732771713782533,9.86908223370077,0.05820926554164303
156,79.54095940959411,113.2185607159244,81.14843693498233,9.971757266416976,10.138367754698475,0.06466144412163337
157,65.23020257826889,172.36210649946588,129.34122531104057,9.558034114608901,9.787949283640634,0.0665819300609352
158,70.74736842105263,214.62612206162615,150.81688801986655,9.893823371357222,10.108385968710952,0.061174066910981734
159,63.54368932038836,133.11860460800355,99.88084394198725,9.692637696067768,9.882275211120355,0.05301444561497645
160,70.76023391812869,166.3920583166324,114.12655890330858,9.768680987207619,9.955011533206862,0.05171135669178923
161,83.11340206185567,209.06086876179253,161.95028369892222,9.907407232467175,10.166780115189527,0.074123978346943
162,82.40119760479043,118.80903940212524,82.18040909078161,9.733987527526661,9.924678845191957,0.07782317882531206
163,69.10734463276836,180.23369266780477,123.73601205044172,9.816894982539338,10.056477011266598,0.09557946383326256
164,103.75886524822695,232.82639354850824,148.0968154635772,9.772609651048297,10.22816715598329,0.07051754137511192
165,75.48037676609104,147.08406720536178,112.39363822746817,9.713392581651146,9.909294486040036,0.06112218406553013
166,73.36405178979435,141.5820804761234,99.42277535320495,9.710537787789644,9.926165418860162,0.0695900638045116
167,94.42361863488628,118.43276279785515,83.30462439217109,9.878819527927401,10.048034144651366,0.0683811778851001
168,70.90647482014388,130.01762580621713,113.26978791224639,9.829131686360274,10.02187356684027,0.0745563453133606
169,79.26254180602007,242.46086637918035,151.5534304584203,9.816411617788546,10.05360425788599,0.06171259898377244
170,69.18959107806691,158.01742054289102,117.82268789271437,9.76810923096104,9.928716072812827,0.05480147589446447
171,103.48561759729273,92.48021187165826,72.35079424784419,9.930470094498595,10.137614073494955,0.05680966993614232
172,68.7993474714519,141.30250130472868,97.68936918539133,9.910930857955952,10.059159404865156,0.06139071388426074
173,55.29411764705884,103.33336066166206,105.57101778719681,10.016230370957372,10.244159747087773,0.061994475667054724
174,76.1951219512195,155.01496497339159,135.5360724536032,9.841865372259642,10.002298639656246,0.05495793991433436
175,69.03867403314916,94.29134885961689,105.96067457128959,9.874232499225236,10.012430285424943,0.04878348774409132
176,71.75632490013317,195.2996613303967,124.39969299656732,9.80067998957501,9.997416995261988,0.058502082925263287
177,61.289029535864984,257.05048149809363,162.78181538870012,9.605235243453174,9.760098267414623,0.068739628517052
178,69.60262008733625,229.2730627411495,135.07152356867425,9.733258117921054,9.969823718212252,0.06192228792165563
179,72.71620411817369,178.298648509646,126.61506486663322,9.737111198722053,9.860065838122042,0.05144580026309811
180,90.22437673130193,281.6290092564997,172.0197849119094,9.889265707077728,10.080145490811294,0.07551549028500261
181,72.13953488372096,134.88654850902486,148.68092942384226,9.732035413830747,9.892200523167476,0.04450800864870499
182,66.8888888888889,237.83697825229413,147.34169045257772,9.916733210310875,10.091248186410363,0.06543669005909772
183,91.74000000000002,110.99125407767913,81.53760339819276,9.644107462505772,9.85149663631099,0.0724159804604342
184,69.94787788533138,117.92209835475866,96.34085229703115,9.643662034086857,9.885744513442818,0.07755387324221857
185,69.46892138939671,136.58865430679936,108.40395416694729,9.868793262115709,10.081464886290105,0.1500439089857634
186,67.38509968520462,184.79489917709014,113.43783980892404,9.814359044647453,9.992475667092629,0.0634067992925357
187,66.64226973684211,113.61690298144737,96.84850031969141,9.764940874375837,9.93174349303686,0.06010341022096725
188,68.01075268817205,255.3922526347843,153.98592645768784,9.766883532872711,9.96038972256555,0.06412648796788768
189,67.70278637770899,198.99906554757487,127.78267081245674,9.734602089058248,9.873629893259666,0.06720886772275483
190,63.60440456769985,135.69473392798315,118.35346005508406,9.797648166705319,9.995373436094743,0.063667638873748
191,68.72057074910819,176.6708471845966,144.18234858364988,9.741740428781036,9.924369258547673,0.06900275337593106
192,72.04712041884818,184.24399593626168,125.15980025644058,9.848696669597611,10.04910927172459,0.06961905012886069
193,76.23436123348017,144.7777402887741,100.7794867604995,9.860205408594608,10.182092301238724,0.09691808966181831
194,101.6190476190476,92.15203423158445,67.39966570395326,9.717017064874321,9.90489398790005,0.07669519745205586
195,59.317939609236234,109.50596755679523,112.52938673941499,9.881863364129684,10.044516938247481,0.037551327403210925
196,76.5793327908869,145.51452744044778,115.02263129227256,9.91456177783791,10.126777912648821,0.0667348079430248
197,88.84615384615383,150.84744697458973,122.96472129929937,9.697455579050773,9.896406849553186,0.06707586960847414
198,67.85046728971963,205.59527935435557,149.97350184841008,10.04055059494226,10.245921430941307,0.054837649209231426
199,71.02933985330074,158.33890508406446,118.3203518287357,9.72557205158079,9.894420910327044,0.05748009171617086
200,68.65326633165829,122.5307247913942,101.5948833234748,9.982508089422112,10.213896894750134,0.05548460841107984
201,109.81276595744681,193.44335864476346,163.1012314093986,9.640082528533059,9.817581855865578,0.04686435312760411
202,56.618951612903224,150.67144942664927,123.91838478794998,9.765998028882395,16.94926001387905,0.2536004411716406
203,82.05405405405405,115.0173310765569,91.07068924289183,9.946925694371755,11.97957320735803,0.1618243459397488
204,89.23561643835615,266.40806116727117,142.8333570966575,0.0,0.0,0.0
205,66.99651567944251,151.3125481203115,116.22248460471069,9.709156664536854,10.393310696145068,0.07700477463293309
206,74.91891891891892,186.3987025247704,176.7485338752693,9.780164617122345,9.933469945364031,0.06106423917866206
207,63.229323308270686,126.72321280527683,93.63984599612358,9.860583783605533,10.098581426052027,0.08510401823292524
208,66.64327485380117,162.034348677168,126.74563866617966,9.756371256577841,9.953778052975803,0.0727753401930918
209,100.57584269662922,102.4172437919158,69.03168805712939,9.751930458844608,9.921566097096465,0.05597853128669286
210,64.2801302931596,106.6212090275777,87.7523240478067,9.840886306171399,10.02547560252727,0.06633632470681253
211,67.58682101513803,209.06342679005562,138.33088620977804,9.695589044046715,9.86460452234271,0.06035022980515273
212,66.38161318300087,143.72563585559314,102.98390915484374,9.744850735678442,9.913719597900071,0.058053829261144746
213,62.22674418604651,160.8416078371683,135.43414508296425,9.808894998730864,9.986783097631397,0.07314057234765425
214,73.14673452078033,137.12821886554642,98.89934681112311,10.050798373911025,10.248475187976858,0.06385420980343579
215,69.41815856777492,234.64655557805085,158.81421406790446,9.506362525707663,9.706199668783514,0.07237819059987513
216,54.83755274261604,204.60201799258894,169.65713684465476,9.770888144135819,9.963249413265753,0.06144891469891593
217,59.87887067395263,104.79404689660831,109.48027624294699,9.778240110157107,9.961458933749167,0.06056481363238085
218,115.24458204334366,200.16938361303087,144.30453317226232,9.799556502348835,9.966778782449211,0.05351555235209288
219,59.35037593984963,131.40513166094243,141.73952423413203,9.743177513657868,10.088300415331695,0.07045805572982021
220,80.18593563766389,209.96340326266554,132.65178494087925,9.896639288377274,10.03537745821743,0.059311775580104045
221,67.12244897959184,141.46401222746886,125.89028175329435,9.895595775964072,10.065539810133215,0.059116877101202135
222,75.89605734767028,139.78458708288045,115.02003397286309,9.843406195156584,10.035764135315848,0.0567781182741961
223,70.05420054200543,135.5346076700569,113.71202057771994,9.790763640773552,10.008984873190387,0.0602439331324422
224,71.89189189189189,162.9054111376909,140.65550763889965,10.075661751245264,10.433889502926311,0.07816854732735726
225,83.58218623481783,141.53609148428114,90.08407576884487,9.811479843446197,10.013522743673963,0.06716515858411828
226,69.28865979381443,221.10158864580583,160.248915552284,9.90984776139889,10.044827168166467,0.0504239198610227
227,63.07124999999999,205.78329264293353,141.33164896510866,9.903330165920499,10.030598962035173,0.06657175179639827
228,92.79257246376814,139.54232397666448,89.00970213607738,9.76534699606548,9.912208196875898,0.0507705999238909
229,65.43103448275862,112.26038684659186,132.74984682803688,9.909704929987827,10.138304432384684,0.07100536378967583
230,109.00602409638556,221.57752920929855,157.61982771014866,9.732225372795074,9.861694672361018,0.06546601129484546
231,54.03534031413613,159.66717613778553,112.93447964573748,9.599648549220003,9.737116610731109,0.04695867640890678
232,76.513098464318,75.82136553045012,68.1153173907662,10.022363805202534,10.213008423378593,0.06455302165710888
233,68.27162790697675,103.25078055936248,93.66671088702441,9.705752036815738,9.842152249239247,0.06156069024024917
234,70.85431400282886,123.0919946300956,102.06895331364086,9.856565290143878,10.042395732044085,0.05428574789184232
235,81.97435897435895,95.2547131733654,70.01433569659007,9.81426018098094,9.959049974963094,0.06144295195129768
236,87.24024024024024,364.26161715223856,194.07541155898537,9.848435785289615,10.045721750910669,0.06014662099544366
237,76.21621621621622,217.2740438353225,143.32936564833938,9.966403490847197,10.197014703082617,0.07004187237696198
238,82.41977309562398,115.8663837632819,84.23488525090688,9.775955564686317,9.90584643664146,0.058141616543464086
239,68.27586206896552,129.1623854737196,94.46741380892409,9.856164392805427,10.05675192973998,0.0670842805079787
240,64.44061302681993,98.60220177013818,76.47880437616477,9.638037961613373,9.902929986744935,0.06783703026542515
241,71.7391304347826,188.93697232725913,144.92888264863248,9.90714973146765,10.981170637950488,0.19123727899448437
242,65.02835332606325,152.95841392586485,123.41297464576714,10.032498223973962,17.160389695280216,0.2048821146814105
243,67.66987951807229,184.25404410003875,126.18158795199999,9.90111302239384,10.075453010212726,0.05174424097085035
244,70.83627978478096,104.1992491657564,91.23612615476894,9.836046012130288,10.02571789092758,0.07549429509470672
245,97.95053003533569,98.20146043832796,72.08149699284292,9.743360769173439,9.929063222526375,0.057095221302575265
246,83.24324324324324,94.03581371038355,67.079614804419,9.744571101925539,9.892852519235479,0.05497086276861816
247,97.87716262975779,102.59804906930049,78.93283899954942,9.93877087756292,10.13202869039663,0.07007252480523912
248,71.86299999999999,181.10630361095082,153.31223334905647,9.670106244522675,9.869781151005139,0.21677041764686988
249,69.9349593495935,113.33761880161562,98.16702493106416,9.82673045244482,10.020394692324112,0.0638275735939121
250,65.65743944636678,127.66136488315142,119.79349716689086,9.710476022194523,9.87358016773408,0.058025942990201425
251,66.025,90.89587920660189,111.90981805082703,9.753244367503232,9.90615934758355,0.06080755540366427
252,76.130615640599,159.13282123841688,111.68792236759708,9.81123006568435,9.971934954681128,0.06302395750602212
253,61.731736526946115,161.14860663305785,130.1713752433409,9.97019102652598,10.205662101232393,0.08367682482901274
254,63.70833333333333,186.33485908154773,144.5789862838318,9.847555977489483,10.15588635063448,0.07576446757697941
255,91.29230769230767,145.58480734188427,98.31596254891764,9.79548412033086,10.740612644625282,0.07550684228979054
256,62.10224089635856,135.9359692009583,92.98411425602207,9.756514318657963,9.892460690088711,0.06849872752019813
257,66.85344827586208,186.05531965755088,132.41003381553514,9.585435872945013,9.86679311067112,0.06816716572674456
258,67.23262411347518,129.06869027974702,97.13281424460877,9.894891026815287,10.090080161453166,0.06615689184182515
259,71.7244897959184,142.84925185617348,102.34382252054458,9.836722155610714,9.98805098101298,0.061810672587831794
260,65.79566563467492,152.27451765629374,125.40503847833321,9.771705851328607,10.65283533139892,0.07834731990000968
261,64.75535168195721,148.15444162466136,114.5435050531425,9.616441211865139,9.821023800946765,0.07597761543695769
262,70.11547344110853,109.57755268893385,89.93723520144468,9.944503064610316,13.552225675559066,0.5879427511265934
263,65.65362595419849,118.98891693041367,91.98156171506783,9.935374524429243,10.09488551805652,0.06015253301159993
264,68.25116279069768,192.86562706492748,139.1282557467613,9.812534338153537,10.104040870567975,0.07603971175719018
265,75.19504643962848,128.60257591536995,98.53592230819727,9.489582986530673,9.677292074355076,0.06585993670113255
266,94.32142857142857,95.16000902058816,69.24259246527916,9.85843817432159,10.03203495433286,0.06596399195881358
267,61.828018223234636,215.51603071947864,150.3583970576925,9.691273732312792,9.852085655658742,0.054216849023895536
268,56.758949880668254,158.69822509941824,118.29044026327263,9.860946216143477,10.085318713250139,0.07463243100932053
269,71.21387283236993,120.48035919012645,109.51477256833073,9.875333207414856,10.023325161287879,0.04816461129437773
270,60.58974358974359,175.82974347288663,118.89496642643091,9.734469571120286,9.91138929872234,0.04740362078086209
271,70.84,175.8009668162504,135.37542047196843,9.885584940809107,10.0996365743122,0.06647106700721302
272,64.75347912524852,171.6876914117204,141.2446113416787,9.636779966240788,9.833119385116717,0.06709935263741762
273,73.24166666666667,151.52100663979715,107.44297771988182,9.835398227409868,10.020077777550567,0.047687787236587974
274,71.15625,150.62213326111308,109.1770126891177,9.839559281103064,10.02561052519333,0.055008893426750465
275,75.5421686746988,137.01521660583865,105.69723461423217,9.882921416781995,10.108773393108864,0.06569109435276342
276,71.9381868131868,138.6976337149283,111.41920070036508,9.791072374971769,9.958663912544646,0.053014927822540976
277,69.8974358974359,130.52648236548913,111.8555981541281,9.49105360787154,9.661540098257515,0.06400285900638628
278,72.68702290076335,166.43716045791393,115.68453284174221,9.692279430529394,9.941662324184538,0.06733437775035703
279,78.78079008520528,153.2495574872669,115.40445085411673,9.631811489708781,9.823918669284364,0.05653742989763286
280,69.30000000000001,133.28264897394286,95.39538369412516,9.928632981301766,10.116848576305028,0.05572416049557214
281,73.33592095977417,104.5317193265993,81.92749610406403,9.809380412957992,10.039441102283947,0.05253763128736003
282,61.224199288256244,129.41269204541422,138.18352729053763,9.681082377249918,9.862072483979583,0.06426591788215041
283,71.73036649214659,102.85893340259243,89.93486281181666,9.85575396438448,10.061774149693575,0.0767209715830362
284,73.93258426966294,160.6404789201686,121.44168009549139,9.76852238096391,9.989026596305449,0.09621617563704749
285,72.56896551724138,137.5653501912149,105.01385797340201,9.697761870683426,9.961808893878917,0.0887050618057247
286,70.46838156484458,152.89935662098938,113.71168638044932,9.925066772041001,10.113128276421191,0.06026033176921547
287,64.49019607843138,127.4132258399036,112.72195142545836,9.88866611925252,10.063769947430597,0.05670944397212976
288,69.31097008159566,190.32576849871973,116.25241118956798,9.9020006829204,10.057072527993583,0.05742622515379615
289,66.18367346938776,196.87925503780798,137.50344932669617,9.807006821635875,10.035156941478412,0.08111573722921561
290,63.550903901046624,161.178440344974,108.64367132959332,9.890914439830748,10.083068460516992,0.06924932770854973
291,86.06213450292397,126.05843863568597,92.06082997353379,9.885447357620878,10.11481421679709,0.06584220393156208
292,69.65460526315792,125.98654085122585,98.75269107119409,9.822622833199325,9.991415577257134,0.0561269918507478
293,85.21978021978022,131.48095719773465,98.14735771318807,9.767655778408722,9.985367690804406,0.07207070256124225
294,81.44247104247104,161.9788755784139,117.64260222773784,9.878784421307499,10.06119171551024,0.06519437418064916
295,67.58715596330275,135.549237352732,95.58364415676495,9.74514412902027,9.89563423362527,0.04156121181928823
296,63.84905660377359,248.9717192370785,171.36616377166044,9.916397851357239,10.503494384395186,0.12063252311548195
297,91.5736040609137,121.59502284396608,91.09335683057026,9.893458072557024,10.059059724501532,0.07289546359085076
298,68.44444444444444,138.80363049242052,103.99751544186344,9.78324557306473,9.918415787720727,0.04075487369516316
299,64.39024390243902,96.29584387861385,77.49833123988617,9.924874843493066,10.129558694477442,0.07917277458289514
300,70.1965317919075,206.60041080153246,160.72127552674155,9.797460434352084,10.035744238425579,0.06651368381423198
301,75.82524271844662,117.8643753384174,89.31718323480298,9.95961658181383,10.11979305297464,0.04216321214018536
302,67.03321878579611,179.95333065650672,129.67797058399344,9.619068537319553,9.818909344830443,0.07136261333878402
303,66.30176991150442,140.21539811181273,109.39651942624909,9.989749428121566,10.146255313945737,0.04830598229351189
304,92.66666666666669,273.0023879282054,197.89392849412195,9.797302265393213,9.956427948840757,0.053287133953987854
305,70.85816876122084,110.28811397303562,103.52009903455892,9.759497253206375,10.547448567394136,0.10309234500967904
306,92.92265193370167,272.1078360067327,193.59481849644047,9.880877450446926,10.003894442787853,0.05104517703540487
307,120.2142857142857,238.79537497222475,152.5733831478299,9.973184930074776,10.185315364105737,0.06803854399673899
308,78.37793594306049,133.84347342894316,104.47305518189836,9.920065006910102,10.102775288094358,0.07072815541972947
309,71.90526315789474,145.82308050842326,105.80365513502355,9.886845748037814,10.621401871461076,0.07541986848733213
310,72.74148802017655,118.34969794789376,96.46513047315649,9.753750725025212,10.024959809988191,0.07112236323187343
311,58.76129032258064,145.65068495289614,97.93194168194007,9.727225863828028,10.348244368819678,0.10695898350033921
312,74.49444444444441,123.59461817716546,100.177460572493,9.574049507615504,11.778455666791121,0.17851178965282355
313,71.13640167364017,159.57809674455612,106.49871203939283,9.6994673753246,10.327739319201136,0.06860210496058924
314,66.22514619883043,168.0055008601329,140.50972454093667,9.62536427001604,9.862814348929755,0.0592553996655284
315,66.72527472527473,197.0729311629853,125.32927255755813,9.837249391036904,10.025747801788397,0.05464827343260862
316,68.87298747763863,147.0746967909886,134.00785138725607,9.694731686285166,10.526505143845444,0.09363015065753626
317,69.30886302596242,168.11624240444965,125.29838679804567,9.837924736131704,10.009663010778251,0.05542160363933755
318,63.872873769024174,113.11860870556538,130.7650871289245,9.756988746076292,10.534758783287588,0.07883823642734318
319,66.13594232749745,112.24543235069103,101.39389628451977,9.756988757526239,9.923205103252979,0.06124907142772493
320,67.99429874572407,130.14878183212815,126.25956289851717,9.925902613635733,10.127606390174215,0.08299081475833084
321,65.00251889168766,173.075205343817,151.5384397749391,10.086328533209397,10.330624172058622,0.07186863860444152
322,75.09060118543607,138.40569330450015,100.89133517682258,9.90529281426751,10.15663557541525,0.05745501234543892
323,63.067404426559364,122.95871055078723,89.13938166025977,9.88344547940862,10.071245851933002,0.05595718117569198
324,60.484679665738156,165.5125422694189,125.72786886349974,9.858170740036984,10.061210210518992,0.05460518152804609
325,59.92105263157895,240.28409441673074,148.74277799881762,9.876571274012857,10.072700634003397,0.056657048174594986
326,71.49537426408747,130.0148948885259,104.3056481167403,9.748530265589032,9.971975720768208,0.08388490611988107
327,80.22413793103448,111.51902785847722,91.67675890518564,9.636661891785588,9.830309496755723,0.06046986925016654
328,73.59244042728021,133.58910169544063,115.27027641395759,9.948528707931306,10.134300416534968,0.06326046885581527
329,65.47134935304993,139.76330464260664,95.3444197366705,9.931613380194353,10.391031884853604,0.06642439274176637
330,63.99463806970509,161.94758329012888,107.46992036748361,9.783414510395206,10.057315763091017,0.07600165517425085
331,63.378238341968924,231.72187346734992,138.30482844870846,9.683486656986815,9.914419411008192,0.07584656537579172
332,67.07027027027029,189.6950280920325,149.74722018570623,9.893426526206813,10.103539076804562,0.07841046404958467
333,68.13569937369522,215.8716971935493,142.72222730924884,9.857073054008746,10.088401154691457,0.060161143559725086
334,73.52258064516128,161.22998724591088,112.75473125880853,9.84624161456618,10.05246368383408,0.0625869114196405
335,81.15094339622641,163.1966895309269,128.80389662371115,9.864149209492394,10.040637257575218,0.061835364628906916
336,59.864788732394366,142.21531693984542,121.9244657351168,9.933999087612555,10.09785270063966,0.06860964592651188
337,71.84427480916031,147.16126298086144,102.00975360943315,9.572443677026792,13.091476044780093,0.1906576678097256
338,75.03889789303082,160.03199007078922,110.73519741894933,9.870832576087613,10.058359372725802,0.05526150679950146
339,76.80357142857143,153.77660026252718,103.05203539725787,9.923384866676166,10.126745967946098,0.06139450653574609
340,76.44999999999997,157.41062945176438,120.73753574063387,9.90513429956714,10.206341055408608,0.07590666693079165
341,68.63297872340425,161.62543108198804,103.73607924825002,9.974203452588723,10.103186871266061,0.06858699801461761
342,78.82612116443744,196.5417014989057,126.9288224788757,9.944425211435,10.298060556051329,0.07557040016757643
343,59.95260663507109,150.79740635388137,110.51372089992913,9.824409057245,9.973371428096252,0.06177976390269247
344,64.88495575221239,213.49101616943517,138.4981980428526,9.645708502383842,9.779819877403579,0.04941188535674675
345,67.95555555555556,178.36470651191905,118.4226675190747,9.815488186731342,10.032760328052483,0.058801176970973076
346,83.92255639097743,129.28856895750718,93.50633049009956,9.675646901934284,9.863505148244357,0.06230557029598088
347,68.73923257635083,85.42772915328204,71.08023525006517,9.813216026672018,10.12995244495534,0.06530335449522635
348,79.38144329896909,193.55146672850583,116.70982825278428,9.737873950166037,9.898097599804439,0.06700772200070367
349,74.658203125,202.9577586551066,148.13070906354304,9.9245198538879,10.142719457356288,0.07915063887403467
350,75.9,102.05489713326524,95.49144283053506,9.981238548568472,10.20316994802963,0.04937704218690124
351,65.95747422680412,165.82619148435444,109.05208116342756,9.735882883526035,11.206148616446622,0.1109369685343283
352,65.56159420289858,133.66095776809846,96.40182432786935,9.792941031286576,9.967944813393572,0.04628747317354967
353,87.64212328767124,112.24024430862637,70.93893802429994,9.732079629746591,9.898141562255697,0.06690004119733015
354,67.34177215189874,192.6436278208019,141.65715715246083,9.753977367063836,9.875441442317404,0.04990082817170916
355,78.29216867469879,130.45180618139318,115.09207120979872,9.780879127330518,10.203897113954168,0.06188509501038745
356,54.21428571428573,157.46396512827164,138.8096673630137,9.77362311137231,9.969237706767634,0.06492048347548884
357,67.01851851851852,214.55202512745916,151.14445240317596,9.792278942043517,9.989954761092847,0.05180193176431566
358,76.19512195121953,158.52812944581694,116.82642503773789,9.801003185574144,10.017038829525177,0.07616913867007681
359,96.65271966527199,252.60002162952532,170.4022801751348,9.951038153490556,10.099193027197389,0.04690266276293986
360,65.84543325526934,146.4305331771726,110.98936085314422,9.786108530616536,9.958325844107774,0.06876267906032894
361,65.26600541027956,105.26693054108802,86.43455361859348,9.877546854115195,10.110501682972789,0.06054067940425598
362,66.30669144981414,137.34822414145498,126.11218120027246,9.91548933385482,10.094933940787646,0.0645067285166634
363,72.51983805668017,182.8463795449862,135.14272058840754,9.785737911143215,10.105978181169517,0.06398693697714224
364,67.02465753424657,169.54194109634687,123.74411393370791,9.886746490555645,10.029223207467508,0.061892978588150814
365,67.86322463768116,134.3289318903381,101.86780389684822,9.743326314722744,9.905271307860886,0.06909699699772845
366,46.50950570342206,238.5164490361082,216.80985116789964,9.658199879747025,9.818158913921248,0.06842288037598668
367,70.67824878387769,195.97974488443208,121.4637344027485,9.986644589380909,10.185128098619657,0.056895213242139434
368,63.50515463917525,138.2064717778751,138.2293517501828,9.860579300124908,10.031646349885099,0.05492409876338521
369,86.19883040935675,178.90180152824075,135.11524294371347,9.625891484099233,9.814173124378776,0.07689880194574523
370,66.01899827288429,160.60208185492053,121.42260576573686,9.909988136620072,10.061442960184566,0.05892259828014144
371,57.96658711217185,272.05335766672346,180.70783036439323,9.827318515818117,10.311622116527523,0.12125954637269055
372,63.144758735440924,234.05974167275315,164.4876749867504,9.80542688342043,9.974783227606624,0.06277503213226028
373,65.83163265306123,213.37598676105233,142.06233263445213,9.768152228691074,9.944490192054184,0.0701929265615383
374,66.81344537815127,146.47762123395074,98.45101528782268,9.909104527387292,10.130253700014203,0.06019330235013732
375,74.4741550695825,106.85346956782486,85.4241467638556,9.899377227917832,10.050101961654118,0.06038827164005251
376,78.82789317507418,162.30357186211725,116.4280538279362,9.753650677535246,9.993840295552795,0.06635264397574439
377,72.54379562043796,189.1922535698056,128.97078145548073,9.838327998956382,10.245111043694775,0.04992570224913617
378,67.0198675496689,148.16232280889042,107.31262063428584,9.988399867819599,10.149511335010923,0.050139176858697836
379,59.89970501474925,138.83001563509245,122.8283838717218,9.942711670565625,10.213581919855148,0.060723707523656245
380,64.49409913453972,104.57515063496405,83.22775627875495,9.663678477549949,9.94817341282302,0.0662453257484697
381,72.10665451230628,173.19544438819668,130.09072095037507,9.832612217419499,10.110254984539209,0.06318929769586915
382,87.4168190127971,93.74340889827212,84.89055662504724,10.107158985012603,10.411367874543672,0.07053129021127419
383,72.34410339256866,108.38979605377145,88.37959447465923,9.898757214906944,10.071884623280122,0.062417927978584566
384,55.53658536585367,49.29719877172519,149.75781015423263,9.807201237744144,10.004685452937943,0.059292867312052536
385,85.46380697050938,220.39218433626522,136.869256259724,9.744612417932,9.932556533826832,0.06085962094071366
386,71.93734939759037,175.86177470510256,117.27358296849432,9.69264194766099,9.993880972285696,0.06521928577432462
387,86.36755823986196,120.0859870708242,91.83552710231288,9.863039534146099,9.983430704411877,0.05075198837498919
388,72.08684863523573,190.31035688134162,125.97969301924982,9.819649016052212,10.193919258093889,0.07524242197777244
389,71.43666961913196,158.8881093750843,101.03035803560127,9.905925304838634,12.26162811360563,0.1241770040663878
390,82.29381965552179,181.760552047747,116.58094935294191,9.87564362035427,10.036623015799538,0.06121806073763212
391,82.27397260273973,202.77323733919474,176.4474467465364,9.821251420311992,10.042506624213663,0.06249583240458711
392,65.20255863539445,108.35867577358333,66.79677382818524,9.623502462605284,9.790734925523939,0.07303575504985955
393,88.7719298245614,175.28504210342652,164.35275008926317,9.716984596356566,9.867669527044985,0.04944398917127489
394,64.64798426745331,183.56537854410996,117.23130534339066,9.837518524290385,10.067968002776652,0.07189106517309457
395,77.14285714285717,238.9045670143775,162.3745348536918,9.87427936327477,10.041542904683125,0.06219553865516336
396,93.68010075566751,149.73587932345262,115.16136328232717,9.879694272826132,10.026729742216448,0.05300579168094655
397,76.4031007751938,104.46830786854068,84.9746953072122,9.77579625195304,9.94670387146536,0.05178915755331488
398,80.4644412191582,124.12166267375005,88.39414493607258,9.817666673540018,9.998072008499536,0.06236239550607122
399,66.08270676691728,123.3470436473823,135.39173767794762,9.78492803465857,9.945218784594406,0.0544359868816959
400,60.82578397212544,166.7097608458429,138.8805682090727,9.985300572670742,10.290332478488592,0.05762904999191455
401,68.56175017642907,195.54398668162597,132.5487432992428,9.724787259754592,10.051164406556364,0.06108102953890462
402,65.03165182987142,252.34631479990122,159.76306321397428,10.199857040732956,10.42784553144054,0.07852055913219742
403,85.71584699453551,166.8692570657811,158.80043327237297,9.69616084846343,9.939300844604249,0.0678665045350771
404,73.69265033407572,119.54767613433226,90.83438829064488,9.847442286300813,10.065908548649256,0.06311198554586199
405,90.51107325383303,193.08466816569057,161.4788369336675,9.786211501525802,9.996972349254593,0.06536118192630214
406,71.36023916292974,218.25469230898125,157.64797937584237,9.781587080180534,9.99275521123346,0.06130056014035598
407,82.13059701492537,120.61813849539232,102.55726095904107,9.785083251555404,9.984429064176712,0.06302362584315924
408,46.70598146588038,151.9325494175879,144.46734541166876,9.668864430452212,9.831205836457222,0.0686324735317919
409,54.66049382716049,236.39281869778247,152.37674904501748,9.802791348471818,9.957923079228507,0.050108845585233076
410,73.25755166931638,129.05879315528975,99.62642902869543,9.85645343978207,10.022607459514669,0.06062648687929919
411,70.20926756352767,111.73152394147965,88.07654677933083,9.777634458139524,9.92951999135497,0.05201996935528002
412,71.28729281767956,99.26924729288235,122.96366261034503,9.932213185311749,13.673367321601615,0.39259150448044816
413,61.589498806682585,159.25490554624034,125.92479895583911,9.816453518659777,10.347280281901392,0.07372488453757488
414,63.80973451327434,203.18637650643757,139.83987613039992,9.859089149603172,10.071676630872844,0.06927548811273464
415,66.40366972477064,276.26415584305033,167.41856269357405,9.697710066369757,9.898807265839775,0.06773695213412305
416,79.19632414369254,80.9861592370033,66.70978774909871,10.040616553397983,10.241093088177038,0.08343303437680485
417,80.19622641509436,119.59119309553903,86.37895114207242,9.80468594205719,9.970440202689998,0.05415533129345287
418,69.81333333333335,93.42528941518285,139.18007441426104,9.677921533379688,9.927336436393972,0.0727994644257113
419,62.15839694656489,124.72290050527765,98.42903201541898,9.88687266865433,10.05737048661916,0.06826067065975043
420,86.61261261261262,305.14243582005975,191.22921063917445,10.031926020040736,10.208275427440487,0.055255620744977564
421,47.82608695652174,383.2269267449222,269.25432534811944,9.954052088700639,11.179756419600437,0.08559378802714845
422,63.49049429657794,186.61680466686815,127.74982992907782,9.634095638680968,9.822657142022987,0.08035438917183645
423,76.23762376237626,161.1744653642942,101.79697632345673,10.004044908107868,10.139889347911211,0.0603448666909517
424,78.21617161716169,148.2063214171408,98.84169142618182,9.567876619862743,9.786250400145594,0.08501567311367844
425,60.28775167785234,158.03841276606474,131.8806812874329,9.747661643771348,9.967459504320454,0.05215114257753899
426,58.443478260869576,96.18283334747557,75.78912461396843,9.866451179530129,10.02742131148562,0.04774931932619706
427,59.93231810490696,162.40258442077655,118.52866641131041,9.927543669463102,10.219468487915035,0.1081200183113055
428,74.533426183844,191.7612827657912,133.11397922516673,9.896387476820337,10.132304243083881,0.0584139958783562
429,78.459324155194,159.4769416876166,119.50414411976793,9.926933950919096,10.066122988130358,0.0469956263474317
430,74.26834692364714,150.63691825582464,107.50582747045299,10.027757121118515,10.220487417215995,0.0632222451611867
431,72.16076058772691,146.1961838199737,115.28885162863374,9.89565290251108,10.105755734772051,0.059961761101143964
432,79.04710424710424,99.5082482048767,77.30058231174885,9.307733510850422,9.471908168545633,0.06571959932398662
433,60.28469750889681,187.78561675708937,129.07343913781767,9.779255834043392,9.966533337780195,0.056352798469172946
434,54.035087719298254,205.12903762734823,157.05696912269897,9.96775670484034,10.142094885636041,0.07037548227778737
435,56.8544061302682,250.2835570320939,187.50650503150254,9.834719401031455,10.02492104416185,0.07514317939054771
436,58.411235955056185,184.70061124851864,162.20729664842872,9.885017780618867,10.089286624571855,0.05416062322786453
437,68.5308764940239,159.88135084994133,144.90918418581518,9.885935999585572,10.15591926074657,0.07027414876676318
438,68.69051580698836,144.98066607124525,129.75053627303623,9.759912583528358,9.955213695500372,0.06253387904730871
439,83.53275109170305,92.76269871011063,67.62909353879964,9.60539506227589,9.832277085252043,0.07446992429434131
440,93.05369928400955,287.02561487889716,195.39784845157703,9.68225900656945,9.809797150560891,0.05903585050659718
441,72.95615514333895,141.21631842883247,113.84559603347579,9.711899422723837,9.882822276248547,0.07101927428800112
442,72.89630512514898,260.9868340011265,150.06603999732783,9.613058742651692,9.907656212631291,0.07759254414601717
443,63.3563535911602,127.47474532101738,111.17608560301257,9.825003554462874,10.00512038529375,0.05755423390243123
444,75.1430734292203,131.87285361737096,95.82943406569387,9.810616274198635,9.979254317676526,0.051863216406237145
445,51.67659574468085,153.0823456998979,119.78550901549436,9.855930622763443,10.04434258112215,0.05095773381094637
446,75.3511293634497,229.9332352027069,142.60647054275216,9.66895076984192,9.841237052739897,0.07106244324836201
447,62.30597014925374,93.66325205685234,148.1532743664269,9.844658824783354,11.491829479734985,0.09353625613988854
448,62.66393442622951,175.76657489047338,136.16234066368193,9.828882808305487,9.991451106413717,0.051905693903604604
449,82.95081967213115,117.40561889257316,81.09797314682658,9.796099487777035,9.94506477995252,0.0486615515513157
450,67.95180722891565,163.155430402574,130.00814276045094,9.897217579177083,10.068193629868794,0.05549519491852171
451,72.68032056990207,145.77885922495878,91.15412888997795,9.782691108925292,9.933490335307633,0.056108889458939305
452,70.56462585034015,137.75743448382266,93.25822442831604,9.783564948277597,10.765547611859919,0.12593114063151206
453,67.71060762100927,183.31848484993725,126.44547815644451,10.015529643869003,10.187194995633265,0.06877858695970217
454,80.09547738693469,165.347831330845,75.66253055615202,9.934479995300968,10.227998798510795,0.07455411961637294
455,83.82713085234094,155.6128038342255,123.13744800493274,9.773996912951267,10.064891676435858,0.08743844783321168
456,73.04821150855366,116.52180808393742,82.36082769332698,9.691960965089349,9.876826443621278,0.0626041987333965
457,65.05298013245034,168.0492345726345,104.83123821118602,9.731626281458698,9.908226652306743,0.06647498780506597
458,88.12359550561796,244.4949446522374,148.81209231637314,9.707546595002261,10.018545774332177,0.07664922790891904
459,94.80361173814897,117.44484059195553,86.66032699216473,9.749223574128616,9.928685797553083,0.06169600858559409
460,61.45748987854252,62.49560593218136,134.67766827984838,10.086921334659442,11.984409770662486,0.1482120845506786
461,83.17808219178082,39.52569169960475,78.92776896330379,9.750428695757682,9.95967826458273,0.07532718252010223
462,78.41025641025641,142.96306493499407,98.35617958098219,9.899460729075953,10.06176362235975,0.07030943461282586
463,73.04140127388536,130.36770340288686,91.99189521264742,10.038483668948134,10.291224636408504,0.07231877670022399
464,62.522988505747115,166.22287176143394,124.79501975164733,9.726144560033047,10.025622946553845,0.08248854636380505
465,72.42631578947369,156.38719365325423,106.9792382505803,9.827898294507577,9.999361579096925,0.045200777581802534
466,80.56781802864363,107.599316771087,104.74251461049859,9.78394625458525,9.960089581303702,0.05019315725444373
467,74.04193254329994,140.4655795508119,100.57962902097529,9.692633925461516,9.891609261882767,0.06159181689711596
468,65.15021459227466,128.56878914655647,153.13336464672344,9.761301602434443,9.994063585859903,0.07204703676817555
469,61.644670050761434,172.18051176660126,135.15653122756476,9.580657892417413,9.76435329216013,0.05467269641097697
470,62.85714285714287,205.32945686189427,150.56418032241794,9.742095558762838,9.985101200056267,0.06827276000300089
471,82.35188509874325,141.17234385236333,104.65173283960554,9.739170558993374,9.884485301536253,0.060488601139946495
472,61.92502756339581,124.75953193976105,113.52764956101542,9.873694966084868,10.0644832205531,0.05237581863057596
473,75.42269326683292,226.59587206989792,134.8057115992221,9.917234539869847,10.08771596531107,0.05433840945565986
474,65.58773424190801,97.50507254656522,81.81447115889884,9.9474237411476,10.209853687034773,0.06993317200648554
475,55.97799295774647,171.76314194993145,120.60214766165699,9.721705771876032,9.932748849349952,0.06699822005252841
476,68.76959619952494,155.4955519862709,99.95117597591562,9.713791117961083,9.935258913597565,0.051512273296047746
477,66.36065573770493,99.89211926967177,160.59972415709333,9.740914709366358,9.97557625914056,0.06996632469618976
478,80.59150805270863,222.1269810038155,133.55067170385885,9.562583235644256,9.803160718383873,0.0730942632480955
479,85.34939759036145,128.41626277745672,113.94938492721944,9.781403836828042,10.040766986949023,0.07091470523509344
480,81.15512708150746,148.57470201174593,112.78637135397733,9.891634510833969,10.76359456725582,0.06952211495658125
481,77.76490066225168,136.0024075532901,101.94509024174806,9.558506116042082,9.704423270639161,0.04837064007068613
482,83.78213507625271,85.8197862991003,65.37860603943459,9.654247164130418,9.914933663467812,0.07219240559135816
483,71.54730258014072,169.89799248026776,115.38358276869258,9.816346399963674,9.990473793653267,0.07211291657619043
484,58.805405405405395,164.95367622594088,125.64521463253442,9.840412295338115,10.084190526861988,0.07583472709934998
485,76.45774647887325,,94.11100506176511,9.611478466498202,10.748759739948316,0.21065338785826443
486,55.48034934497816,219.9992097616629,155.2616928265119,9.897455792024088,10.026430016454166,0.05135243038838463
487,74.8620178041543,158.83452138117948,97.10187603350305,9.63875942258184,9.805422070447884,0.05124285012839723
488,90.62686567164178,165.34783133084494,133.835636718775,9.79752214017838,10.692480936217404,0.06924091292778932
489,85.43123209169052,220.3870561869751,139.31980826620497,9.799968819451994,9.969001583881992,0.06462032756587822
490,73.1102661596958,206.4437131573216,171.19550948603225,9.794525937507625,9.97891472344921,0.07137064616023008
491,56.24588576960309,211.2071629327435,155.37087221800152,9.814572040594491,9.961232469728582,0.054502644800678464
492,72.1846153846154,82.41676444943664,79.91006210687931,9.833434629305524,9.977815248203903,0.05668543319841865
493,54.43027888446217,215.7682855961452,125.6069358460702,9.958795909580195,12.81992832874305,0.13582041436878226
494,69.94029850746269,136.99785787549555,87.52541588689307,9.62963396334201,9.831152256393525,0.059553749484701324
495,82.68456375838926,167.57776494238885,165.6082870493395,9.796057664205684,9.96138442822946,0.06563519288460572
496,59.4864359214219,139.63743323167776,115.0719531134529,9.719794724699119,9.890320331596287,0.05869459431663134
497,111.55905511811025,167.40192041598237,128.2256003316598,10.073522187927693,10.23433310595403,0.05535720311128512
498,77.6381679389313,101.8553761269185,133.86991587143442,9.780058051170757,10.337624013524449,0.07284479879790647
499,81.02995391705068,121.04933956101765,86.05467771207205,9.892345498317072,10.06236295154531,0.06937589823591378
500,66.60329067641683,96.81777639459203,78.20625869949778,9.619145056989419,9.837220380792978,0.05708283683243565
501,56.14520547945205,233.00051625596038,164.02376513458412,9.819034325786088,10.042811713896167,0.07080243337734782
502,70.52654867256638,43.555190910619736,130.59099385433208,9.550158236976571,9.81005519846592,0.07241327232141535
503,79.96857670979666,94.31560185482816,83.26974857376368,9.854411656054022,10.067271256579241,0.06016617065070605
504,59.15492957746478,178.91118030876615,155.3509511719253,9.761093873760723,9.923962302921803,0.06649047993641222
505,82.28411214953272,130.97022591466066,100.14704624544825,9.80182991943669,10.083564388214315,0.07569637973772969
506,69.7347972972973,175.30172503300636,109.9203278900605,9.723596264145913,9.86400841442435,0.06775555170514747
507,104.40677966101696,279.79188261722015,131.76379147859106,9.909019797729604,10.092484154008316,0.05570107994298967
508,67.86858974358977,192.19024138894474,134.93896917431957,9.832130828601002,9.97323938681755,0.06939048750524111
509,65.02835332606325,164.3047831044234,125.63256176693554,9.819593561780819,10.041554094680354,0.06646432315374515
510,68.73962264150944,194.44069369563383,171.1195679560018,9.825454352528176,10.024036314424166,0.06562491434276549
511,62.02951191827469,168.94276961761076,163.09799626473037,9.708766627168187,9.895378706724706,0.06345677047856257
512,66.96891191709844,157.61353027050956,111.41199226305608,9.920789712462648,10.43986279215242,0.08263746312187568
513,68.49317943336833,75.9006496824961,60.23404697272126,9.752986879801202,9.945298664567497,0.06368770050102711
514,53.87223974763408,242.00508096654565,197.0635560808806,9.84487718580824,10.090385727797795,0.06325107005114061
515,58.56243654822336,223.70750043030498,161.03520849714585,9.844519949401404,10.057744576937298,0.0684230259196088
516,80.75967957276369,241.48273212124533,167.86546288791294,10.077934432640328,10.285506892006959,0.05761651378578401
517,93.16725978647688,226.22339257404352,177.3464518455594,9.867033218314454,10.065022586451834,0.0594885957367436
518,58.0289855072464,170.57046151381425,116.99832944621257,9.88852599565983,10.061074200275732,0.054300367387945046
519,68.04827586206898,195.21393464779814,127.89128654583851,9.890285027455551,10.185391674682279,0.05702273914828535
520,67.78817733990147,149.2908914818866,125.06863127487095,9.786436409703201,9.96417143175109,0.06544846863485294
521,75.36170212765958,146.04762457795104,103.3484202017116,9.72399160649487,10.043987800985708,0.06936142201104412
522,78.05702217529041,145.77885922495878,126.68319848961072,9.95653009399591,10.13726820571149,0.061807578730840695
523,80.40770465489567,234.71458635437207,155.3105867697252,10.0540106243411,11.743399782612947,0.29256029241449605
524,80.89115646258506,188.7773303539856,142.21135193963818,9.736645983968682,11.670392845322105,0.2836376667198318
525,62.804577464788736,156.92199771951599,122.3896234949215,9.745639722828779,9.957351389613683,0.0719134185574655
526,65.3661710037175,124.5683570878705,105.25683838953915,9.76433778623285,9.983534580918326,0.08333690703075222
527,63.249999999999986,104.467961028916,103.84559105497021,9.871631646581582,10.117814955377877,0.0893925303093262
528,67.88392007611799,131.25937123833478,121.2546550641359,9.796829807212154,10.079452923662835,0.05936237418563858
529,86.09308283518361,86.19217441548615,61.25705026600119,9.8305385337165,10.03633249935862,0.05486135241316246
530,75.78854625550662,114.81175927492343,82.73519343714526,9.831665404983713,10.105403181550171,0.06931088631838088
531,74.09867172675523,202.99931933155932,136.09882133333807,9.757805409027547,9.87050822483442,0.057238297835955854
532,65.27938342967246,103.08121991160745,97.69196043542127,9.995588154333891,10.237835014912331,0.05293281081941253
533,97.16508210890233,109.78650110612266,77.02865317386879,9.926154572045151,10.074879252041418,0.05764712524760105
534,79.32541567695964,181.1294741089265,161.78581767664713,9.604805580718589,9.791541913195319,0.05650984713975706
535,79.87313432835823,303.3281523951662,197.61643003124033,9.74459976806106,9.902297735131114,0.04825164473602368
536,69.75133214920072,151.23801043691668,114.9167773657679,9.774504960671845,10.056277169357308,0.07460106644998628
537,60.0,79.71362409395147,70.38793308012598,9.853733712451042,10.00834037108876,0.05115805685882885
538,72.16117542297418,110.20014453518155,90.85556673954578,9.693403434171415,9.845112801474395,0.06680610746481418
539,75.07246376811594,170.184387022142,119.35663586076312,9.757896079225041,10.00633015607619,0.06668365663558828
540,62.714932126696866,183.00286585768765,134.89555368729768,9.946165492308904,10.158297456373365,0.0693201934077542
541,62.649563318777304,129.10459950093352,109.93519308354783,9.901902614848803,10.746364830842943,0.06042218741169059
542,85.14181152790486,99.88351634319578,79.93542041933475,9.847895950116765,10.022370380280464,0.0570118060557199
543,73.29941126997477,108.41304086226505,93.68411298470221,10.002596167670134,10.19333728304659,0.07093603887026595
544,59.936800000000005,166.5943960654815,127.61838447365027,9.779941465845381,10.003093639582481,0.06298499359823038
545,88.20183486238531,236.09777902083917,179.11125541745002,10.026888317354885,10.188311635498584,0.05948387954789863
546,87.59895833333333,152.33613021788796,109.54862381438197,9.779118161608528,9.959928405234514,0.05259657139161347
547,72.97991967871486,144.7338360078445,112.21011151535755,9.866130661187876,10.007670439636621,0.058516112721264286
548,65.92349304482225,145.38971352391596,105.32544566814073,9.813990753901331,9.983359517196355,0.06610737083151383
549,60.632162661737546,172.4992776607872,162.28033004769784,9.950861853219017,10.130577977225473,0.06433420551114233
550,102.3502538071066,197.2541397908234,174.88689486582487,9.747262765456291,9.90617726506631,0.06920820283391084
551,75.08604206500958,132.49103628824042,103.90733772907139,9.804026229490093,10.035019650957578,0.07405333057033071
552,67.02962085308057,141.2849509136224,116.7790679667047,9.828413536775573,9.991987466717854,0.05683358388247785
553,68.11795316565482,150.22331159398706,102.95942300278959,9.779447805799565,9.97606174728888,0.060295885279879224
554,67.06024096385542,225.33111167967155,117.09788528063473,10.030468396135635,10.536210157501067,0.05578102879702109
555,77.35839598997494,67.84649825351732,61.217851714801704,9.976769775525224,10.179046106467851,0.0668627289139342
556,91.85876993166288,197.2541397908234,158.5336371532405,9.8930662051162,10.071676915115486,0.05542011915693966
557,57.8168557536467,186.85172875917843,179.27901315807222,10.021047891906218,12.101687820858652,0.10976695360103873
558,93.08490566037736,214.67945634783035,181.3844784223126,10.071665887831001,10.273212238055839,0.048768401313455986
559,58.08673469387755,207.32278602171667,146.85507028292778,9.746177890426653,9.922968534124756,0.05754593624815699
560,59.65938864628821,151.61740917106212,157.85859249548906,10.134868369099062,10.33798429340028,0.061874771561527916
561,53.918032786885256,128.8379921976808,118.25179584693304,9.868120656465848,10.032821035060016,0.060114854205787445
562,79.22106943335993,133.32032358496733,91.44372594141417,9.752380316342139,10.132963321151625,0.0719520051836141
563,69.79310344827587,314.55431847992946,159.843024486837,9.882312574421812,13.439797074691826,0.6726076917067897
564,73.52159739201304,74.88321547480966,50.97517488472949,9.831858509869726,10.048708222536272,0.06389971335074646
565,66.0679012345679,180.0351208092779,128.81388724368185,9.709315745439323,9.860350224880275,0.049504871804808705
566,74.28571428571428,265.1289177374203,174.42583189986868,9.813766508847927,9.966945520523176,0.046647476307320655
567,86.80970149253731,86.93309498740516,83.40921536451954,9.811989970205072,10.398766958870931,0.06902608962177721
568,63.20190779014309,81.68735118899149,77.73901650958943,10.0264068019483,10.21275025536249,0.0695746874550629
569,52.34482758620691,51.02744856663264,49.29719877172519,9.810889312638146,10.025965598707243,0.06547982140892265
570,82.5,253.08791452303748,147.044073025599,9.823923217702045,10.010855217428817,0.05455799923000725
571,80.05161290322582,183.8193805236961,155.4173953577195,9.855350012648735,10.001423215187138,0.053185219673708505
572,67.52669039145907,137.39561010944803,144.09052825377955,10.043703805359709,11.287957316445889,0.21924655396434015
573,56.733333333333334,122.96601773225615,101.67025502685163,9.78017420581445,9.996018487856919,0.056970253781068236
574,81.0406374501992,106.23619159888199,79.80938268859322,9.632191334042146,9.820134767414237,0.07431437191460155
575,59.177837354781055,155.84415584415578,115.05313811670169,9.788560375599275,9.92378770280864,0.057856294603791596
576,64.49209138840071,145.88338908331824,102.87865413171599,9.860325920118143,10.073588265481026,0.07256969138393264
577,67.74193548387098,157.32521350111324,111.23435379409797,9.91476998181764,10.100408465669654,0.06876555843244563
578,77.09243697478992,104.38100260279884,77.88084053161121,9.910384482545568,10.046780099867886,0.04599968790742905
579,64.59574468085106,129.18201949153828,113.12344438404166,9.68068444395514,9.938269793800547,0.07082088683860592
580,65.3074501573977,126.73671282984839,128.23560750445597,9.24690467442148,9.509358273277408,0.08754109354926837
581,68.28283712784588,204.2393223731258,121.4055040868912,9.79527538797071,9.942904721493063,0.04156583570532429
582,80.91423357664235,276.92262285484395,165.6378746326806,9.730562844583995,9.94629854923081,0.07744149073840442
583,99.1864406779661,299.5822694655136,156.54409856999845,9.897198088991798,10.10241349193035,0.05684781160989606
584,82.59705882352941,159.2216963068956,135.16785461285448,9.951054398627633,10.14609102882361,0.06203095003606472
585,83.19540229885058,132.88637553050418,169.63852421299615,9.70839577235865,9.8644029699231,0.05950929420554324
586,86.62500000000001,112.47083166031668,105.1511497964599,9.655854612333309,10.843910744264035,0.1426468147105202
587,93.00486618004867,166.48688111651867,112.13962233820848,9.563296204651463,9.893409488944359,0.07386517279687418
588,61.38970588235294,297.75729591540244,228.05076036827063,9.8686524843117,10.082578613037493,0.06932247800109674
589,73.9403973509934,129.10162227881213,89.8227388290915,9.806559028477096,10.027925914965031,0.05072902039202766
590,85.42591093117409,106.77123422484519,79.3719143350755,9.937886494373258,10.100719104646254,0.05265049948035133
591,70.31963470319636,100.30411069079048,75.64865391797768,9.542184969119303,10.206547285282896,0.060435979438435324
592,72.56702747710241,124.60797176754511,101.28326009626097,9.690517177844956,9.902022503710414,0.060357497748975975
593,69.20736842105264,139.450757424149,111.89548997620867,9.88385714775447,10.003591600332697,0.04561851549191776
594,66.60550458715598,197.5278709359279,167.44254354921472,9.86352487617587,10.109415669266673,0.05245801422567096
595,63.67932489451477,170.99371393007328,116.6638466427112,9.908062605930864,10.055892490969844,0.05594788800664822
596,88.25562218890555,120.38176414481319,95.16811510984985,9.84793650883193,10.060065803386747,0.06065734858549965
597,53.0097087378641,191.710963232924,136.09899193547568,9.849997314156502,9.987797531864507,0.057730257639749205
598,91.88861985472155,69.44560010715502,72.26755084657475,9.675444999024007,9.890783737762089,0.05927025023285028
599,82.0945179584121,222.74420367444534,148.15334391023939,9.843844167631655,10.038559149441893,0.0558627279998263
600,60.29805615550756,203.06919081913114,148.0420382488246,9.882183478953776,10.135188584844652,0.08019396307079098
601,69.57906712172925,198.0294662422557,134.65196536390096,9.991719468599173,10.218554586481618,0.07763448615468302
602,65.46558704453442,204.9679147104208,134.76081482252226,9.486057871779424,9.668525128959512,0.06317526688714381
603,76.8943231441048,127.09830190366424,98.89879026698182,9.842526780361416,10.018154289109143,0.06238776962981094
604,71.4257871064468,129.45080788826172,87.83491080789751,9.796259840895107,9.975776498063965,0.07149174204024476
605,72.12217194570135,139.11188776729165,99.07827734426391,9.729764366695715,9.887371288964378,0.055051150589234855
606,69.50000000000001,79.29598203389236,149.56208315223574,9.74167257900237,9.974571990624261,0.06215887223239211
607,105.90697674418605,68.05660591109304,48.58784957730111,9.850548441075402,10.027049515956445,0.06438987318239268
608,58.23177366702938,210.50983570217244,133.76398589055842,9.97993132955101,10.47446846413437,0.07763391473759328
609,75.13417721518987,206.41022977149174,132.81812283029993,9.990427662509196,10.179780409182973,0.06493035041917422
610,71.23720136518772,120.42440258535738,99.38683601851476,9.829888939060591,10.029328108263437,0.07592354063127307
611,73.68674698795182,143.9146172993505,92.55050162253043,9.891130168518568,10.113021767916438,0.07075744103212477
612,80.86961869618698,154.40733827561309,113.48441673720033,9.700865040086553,10.0568766831719,0.09859077965774908
613,86.44126284875183,120.64432010369939,88.59903875556003,9.79064589866271,10.344735349813,0.0813934592449264
614,69.84316770186336,164.12536507231275,126.6345018214454,9.840550526697802,10.016040790503618,0.061770656559414654
615,89.45374449339207,205.20384755267995,174.15733708213975,9.815176342346485,9.978636728104506,0.056354892838123026
616,51.724444444444444,167.04206918430808,186.7094257506935,9.739783186218581,9.967024077460414,0.06983872270624915
617,62.31213872832372,162.4369444305593,126.18683542212948,9.873022285028743,10.049873222227626,0.05447364516054116
618,65.51270878721859,145.60521853244256,109.47836846098325,9.890281734851218,10.075007332871397,0.06951062885240394
619,78.06451612903224,299.2654187481276,161.14729397039898,9.849995500008236,10.030359003494603,0.06410534189262783
620,70.54807692307693,109.80021690117346,112.57380317243727,9.76053475640347,9.940355620305175,0.049366200524183834
621,72.53860465116279,119.3478586716459,103.04724529085956,9.769479927215135,9.924427311286282,0.05553167239385475
622,53.96470588235295,184.3368374619,130.47702644381954,9.688290964687397,9.862473502912971,0.05800326786632953
623,67.14285714285714,313.87908303386416,182.63940633056674,9.919813511893729,10.05272027266245,0.058613229794468355
624,65.79439252336448,215.09267491048968,126.19534611035502,9.755147426085424,9.890920353049895,0.053396287058359415
625,62.31527093596059,97.93709423194929,76.95237010996337,9.632403597049901,9.803942446875718,0.05846034310913563
626,62.242503259452384,165.08884797763517,111.94763774600762,9.768023519907187,9.953871813194159,0.07342472322355685
627,64.56693620844563,127.38913022695087,111.31736763006691,10.000284240148318,10.18049019416909,0.05693277982847346
628,79.97268292682926,159.99175575461075,115.48467023330964,9.976080358044769,10.198764460445803,0.06017584309986765
629,84.86173320350534,146.26870846491232,109.39553600268978,9.670737605754162,9.831190548697084,0.05550454649251585
630,60.4828125,158.94151415258534,113.49649596778725,9.862874526897954,10.072477594795448,0.05137593532765913
631,73.47912524850895,203.8062202712983,153.9984727205756,9.768656704818397,9.96236085897091,0.05834709208683003
632,74.1407284768212,100.40482812581195,71.80417234259669,9.863633786110391,10.019333484827,0.05392695520995727
633,68.91986644407346,110.99125407767913,81.36347650477963,9.76980142101629,10.003417030707555,0.08713932127461807
634,62.105374077976826,204.32180400634712,129.36853890166432,9.889797550494423,10.06086648233926,0.06392300530768115
635,67.78169014084507,112.62069292820158,83.57665045896265,9.834502354468517,10.010020222943414,0.05396880211937635
636,63.239889705882355,168.1820639829489,113.81907895537637,9.644982842922687,9.759253845382037,0.05969979998221936
637,68.02816901408451,86.14424789606075,86.47855321999614,9.776145112908099,9.963531357703229,0.06355883448446682
638,62.19146825396827,176.0235740052401,135.92923018951723,9.943646490346737,10.130175914329069,0.05938139467476156
639,62.00853788687301,224.8899944999539,149.0943266942282,9.526124147776414,9.757336299709891,0.06250501796956928
640,65.15625000000001,167.7321257006915,125.08079097848966,9.738013811032449,9.934316489091538,0.06823435362074971
641,54.214285714285715,130.195012584985,116.53248949064638,9.675310329577988,11.793499180076225,0.19658232816884608
642,71.4917043740573,145.53396729033835,98.25634314812562,9.76233449316763,9.93236435869473,0.050114949365817126
643,83.31588132635255,132.48836560951352,95.11136778808145,9.621161806852152,9.834007390344139,0.07031893775548033
644,62.4493670886076,162.70209532580327,122.45077875100193,9.750667254092766,9.849779285520862,0.05416833547238232
645,63.70833333333333,192.56262885104456,147.87267768280003,9.831178637828106,9.995825384818435,0.058520827631167074
646,57.86608442503638,310.6433508708415,170.0673626232352,9.717316594353555,9.93862157863767,0.07954811255857679
647,63.71342078708376,154.3613042739803,126.43938456874169,9.810998462371618,9.998405798192842,0.07839447535561676
648,79.52741514360312,139.06704844493345,150.7876902476128,9.764785568020043,11.731805757551054,0.12157088575629171
649,63.35443037974685,169.8272315665197,129.11484053069736,9.754821303716408,9.937874858176427,0.07126339330310376
650,68.9214966984593,117.00112106954002,91.68039275792098,9.75721182865773,9.912439679847227,0.05403186384471326
651,81.26574803149605,109.62562273561656,75.92446994613168,9.831752778872492,9.993110234628023,0.05930442912813472
652,72.26402070750646,184.23764979646498,128.6721641106896,9.851562465935517,10.015610119670184,0.057115480593813134
653,81.53554502369667,144.10173158252542,111.38983367783966,9.87907924752109,10.061147113945443,0.06510956478677014
654,61.600000000000016,151.94417120778385,118.20678382528695,9.872605788253265,10.13531943426368,0.06304012984237445
655,62.769473684210546,166.4868811165187,121.35312083814475,9.67474538221938,10.825233836980768,0.07528910902123456
656,51.55456965394853,204.51207908192094,134.21886420564542,9.894458635968792,10.02791164081672,0.05556647535958826
657,86.7154989384289,107.36457777946616,79.30094993765853,9.782054788832903,9.988394277195333,0.06973183980916106
658,113.95102040816326,231.9617379028191,128.71602984903538,9.783931737880652,9.943667690579568,0.05137330818996643
659,93.41538461538462,123.94524191190236,177.59091655742517,9.870339786825783,10.082034507334841,0.05343923945911386
660,59.26700251889169,166.0730445974441,160.53133480083784,9.851258720521892,10.30400707876284,0.07260311763990818
661,85.17189835575488,203.79267787982369,172.67290940340774,9.785612305913487,9.952731675028756,0.057222203125020146
662,68.57494866529774,140.98112357729048,126.56946244312643,9.851859331648763,10.055156045241489,0.06299490137322283
663,80.83989501312338,126.18924225878196,92.86168365974989,9.97155683220783,10.148936474662024,0.06677545425116943
664,67.21771217712178,127.8598743560051,115.52769119678732,9.88359276688056,10.06137161359468,0.062276445506192685
665,62.111292962356785,218.7346207626349,155.74526932521422,9.75144631301433,9.909891697574363,0.06969941956607363
666,67.3076923076923,141.75659736469808,120.62579278764065,9.712703943100111,9.940484426461845,0.06034014671721678
667,59.01446945337622,193.78230354360215,143.25547899597672,9.69569768399884,9.849052352784414,0.06873066309849471
668,63.399734395750336,237.1362749648712,153.0521417180148,9.865980792262892,10.034148222441194,0.05219639930628114
669,60.609800362976415,195.64219242315542,140.24015628376952,9.675979361219428,9.844410533382225,0.05430027765778334
670,65.85190725504862,113.33761880161563,106.21651802749571,9.707790872354552,9.879859767282374,0.051212570632314124
671,71.37987519500778,149.8252745147937,109.84043060090838,9.891059639280401,10.044270543028238,0.042105304047893075
672,93.00422535211268,94.58284516658937,67.93235994997929,10.197051331893729,10.389408816379943,0.06189111147423685
673,79.8053691275168,175.28504210342652,142.74248398808473,9.840303008398303,11.563325860265591,0.11759642053863748
674,103.47826086956522,215.92391177666963,172.89239919824868,9.701546522625458,9.867502344462606,0.0638547211661691
675,78.72211350293543,149.06071803668985,105.10299650102542,9.87532004166727,10.134921655265519,0.08095015436450397
676,58.94339622641508,137.03701690384298,141.91769425283866,9.862772580173706,10.016327679745077,0.051033670607165696
677,68.17708333333334,57.788559639706484,46.405935977043384,9.628726237035767,9.835971692390634,0.060464338238975006
678,55.53658536585367,123.84971569970604,120.9581706234491,9.686395779995255,9.857237129700662,0.05986322054642475
679,55.56738768718802,108.8912619322047,138.6661948002693,9.780311332841235,10.322316511358757,0.06895698112935847
680,82.45925925925926,166.5651324123829,108.56813101907352,9.665172440845206,9.827736579856486,0.06517887627360117
681,70.13861386138615,228.2016874267295,145.30896931064675,9.861720909559615,10.143435928038453,0.08177254442724276
682,68.41163310961969,134.0004763165638,111.41245287492534,9.840206548272272,10.00234915633664,0.07032167409598677
683,115.03789126853378,158.2926801002751,151.88395995470222,9.707140275350108,9.993422490089268,0.077186456049187
684,80.52287581699346,125.29536523445763,74.44558108959806,10.106963441033736,10.31608694286648,0.07096679062626875
685,87.01910828025478,314.71982984022736,178.8254112560591,9.807384048101843,10.067569197723024,0.08774090033389555
686,60.30858468677495,180.18282948274572,151.64760702333868,9.863066297883492,9.997903928321419,0.05644889224500103
687,72.81918819188192,108.94168485497092,88.30888717814801,9.792333133097022,9.97322783312249,0.06327258206364532
688,92.77108433734941,209.81161586238326,198.05088353982595,9.862809770220679,10.12792100023949,0.07310294849393024
689,70.61463414634146,129.84073085902992,105.17393944829101,9.86335011828775,10.080311773686386,0.05895383061646374
690,95.5625,228.1825379256967,181.44316411658806,9.64133695128665,9.797498188107012,0.056133315891399554
691,75.11252992817239,100.02037608909727,73.82203020647742,10.00048823029347,10.197480946051083,0.062234935428356855
692,63.70833333333334,142.1514229629745,105.07457171182621,9.81058889853683,10.020241843087415,0.0791277928835937
693,53.2140221402214,147.89159631517555,150.3007436504135,9.8150268450188,10.0531703552258,0.07322159031796957
694,105.79999999999997,243.11781406121125,122.02619333958916,9.757632000667728,9.95402769479262,0.06091696142786938
695,90.58823529411764,277.6913716551501,177.6896766388267,10.730337095762255,10.88607357398324,0.07027515902967975
696,65.53191489361704,104.4287440315344,94.52660787543697,9.832189408599083,9.97929046387893,0.05342663821774567
697,70.39055793991416,158.69886522976086,106.10685942764349,9.902246645068463,10.060205526631602,0.05549786825675875
698,71.960231980116,145.1663502245228,111.09406942764676,9.742823282670168,9.931491849802038,0.049727261603393795
699,64.62632084534104,208.68883646683292,141.47258767706376,9.738054381152617,9.891554996044144,0.04982793903145095
700,67.34223826714802,160.9591391702338,122.31848877612669,9.704947633499689,9.874642978196915,0.05614637069444987
701,63.039730134932526,149.47705637836415,128.79033534412832,9.978515956670082,10.148919549918874,0.06532452610706647
702,61.60714285714286,48.408888197295994,87.22918086408677,9.721621610549391,10.438661784624987,0.08715184176630063
703,77.94901960784314,130.14878183212818,96.04538038796002,9.724015789914233,9.89877957427292,0.07230026771352396
704,68.06629834254143,176.1770122654481,114.59475262151362,9.722075396337983,9.886482647506758,0.05205712606396149
705,67.81443298969072,145.58480734188427,146.9719675224282,9.920735443245423,10.11398094095174,0.062307150344658425
706,86.25,175.54319399898185,112.7233182408824,9.812601512714044,10.018153360385131,0.07058192358136843
707,68.73339085418465,120.1924093329752,97.14006580042388,9.71616423757785,9.884106536399367,0.06373917387471267
708,125.18128654970761,193.95134700931916,119.74218086495651,9.838792679010325,10.015123332862565,0.06669928422544649
709,74.32965517241381,112.8036341172929,100.31416775245661,9.98197066382707,10.147317777321923,0.06314922129877508
710,82.07085201793723,89.07476345511448,66.31705895677295,9.886458488763305,10.03441797538428,0.07032618108362536
711,65.74712643678163,117.5868144921562,97.95432764478053,9.87565707710549,10.220982139034477,0.08070347641501957
712,68.33597464342314,166.697355827888,113.34254544811598,9.803232385128153,9.976611847762294,0.06376863055764438
713,68.80453257790369,150.1195969552011,115.63270492557756,9.91183854716013,10.091608751696835,0.06483488674805453
714,65.15384615384615,148.0747305323556,123.8825821919686,9.824835800312984,10.05680103424185,0.053790679050771305
715,64.34540389972148,159.4870820230693,126.28826785603343,9.710380286025229,9.877328596306189,0.06472662816281359
716,70.21052631578947,139.6228533902705,166.53724840240892,9.841084032364334,11.852762274214909,0.1458938179494969
717,89.15559960356788,174.5012173824632,146.50606956301323,9.906253067797948,10.069280891052335,0.06781658018588119
718,58.48924731182795,181.01886067930715,168.7631083760465,9.75498331675005,9.912536358127932,0.04979830245556417
719,89.17685589519652,108.39560130895715,81.75456444435497,9.977347176628339,10.176611785483464,0.07508481866296057
720,67.67334905660377,194.52573536112786,145.68592983094032,9.770428501742822,9.909887580989672,0.06402317932811706
721,83.34117647058824,315.7935392412881,192.5830096143773,9.883498092464379,10.10464293352801,0.06625913326300942
722,96.54478707782674,107.95219885014124,78.90598684490772,9.775090362119812,9.973235368142525,0.07403765774676767
723,74.08565737051794,183.10908999590814,141.07788478257126,9.827401074529739,10.453113995959777,0.10304020234433384
724,71.3952380952381,135.92686321150126,99.48484942031126,9.938056820149624,10.153504629774165,0.061407951763348026
725,71.0429799426934,142.51190812110627,100.27758188673249,9.655292199609606,9.87785492346385,0.05600439102945063
726,52.74018126888219,132.74437294613742,146.95004864362915,9.72718189418993,9.93828628511818,0.05954332509346042
727,85.9245283018868,90.1324446718686,72.96112308228435,9.873565657302366,23.522531696682844,1.8032558719132314
728,76.74980392156863,127.63359241731058,98.42280084617862,9.728777423798615,9.916624935719732,0.06181728952312846
729,65.44923504867872,199.72537087364637,135.59668974775386,9.826765026476133,10.159469191692107,0.08916382142694815
730,71.52879581151832,106.79253823008928,133.64184501276185,9.962453211808407,10.421517176970827,0.07387078888631239
731,66.2882096069869,234.67079223395098,138.00071343949477,9.88443319551352,10.07305340814027,0.05530602456400318
732,74.40087783467447,126.07768297394448,93.15008064692675,9.749453002163852,9.924921719358627,0.06090124784881098
733,69.49458483754513,146.1593179647632,89.3083560429781,9.889672591333214,10.125652931951185,0.08249062770602875
734,63.11159737417944,135.35614949218368,109.17114011568067,10.018846971378172,10.180845279001481,0.06586302632506659
735,82.60102865540044,127.74230891497406,89.21150588892472,9.762436156709327,9.984597371189976,0.061897657596929744
736,86.11183355006504,137.26104359531595,95.14173524323809,9.863441818557298,10.014344367579017,0.05690146887675976
737,70.87048192771084,191.60789950262173,135.35669541848998,9.759589324785708,10.009759608039577,0.06300663130851675
738,88.84931506849315,278.3721076329643,203.6976242505922,9.947633907096641,10.08257321826532,0.05199845529357759
739,85.8869625520111,118.3170743928438,84.19033111441885,9.798625034602596,9.928104278397877,0.049295939031876033
740,77.0,,95.4346653032407,9.86562806106032,10.055040665992278,0.04994037955664506
741,65.53846153846155,187.32147122084982,146.84893792983596,9.871111200350175,9.99355856166459,0.05870867402218302
742,82.22168674698796,171.47003057262035,161.32268265614223,9.885617997648781,11.946397423522024,0.1585738590703308
743,57.57269279393174,137.52023200364812,113.40651938342725,9.724825961396839,9.88648518121846,0.05401710925127274
744,72.4766355140187,134.420767428428,95.59640486318833,9.634644538423832,9.785848451716213,0.05889317794544841
745,89.32302405498282,259.2055103347317,155.73849384156966,9.777146703936301,9.956990059674043,0.058497124181403626
746,57.5793103448276,175.2850421034265,139.25851509217463,9.779270667515837,9.9939871750174,0.07021152068754466
747,80.19622641509433,157.55284246510405,107.17251776455284,9.881590215572684,10.092837371240202,0.06588680180991426
748,89.88157894736842,316.205533596838,157.49162123004925,9.830526233450513,10.010134476665844,0.06651577596275442
749,64.5810502283105,136.33994028233553,111.01152090046791,9.928166298321836,10.162778163350964,0.07254387989351184
750,86.46835443037975,191.60789950262173,158.22471264516312,9.796198087559151,9.959357190040286,0.05370930733540891
751,73.70277078085643,350.48898048287913,193.11422077139298,9.783072845889642,9.955117072213657,0.05505816618573157
752,63.46803069053709,136.77113756026066,121.54080007308323,9.83765789676698,10.056555082329744,0.06447639960829007
753,86.16666666666667,249.8514408501202,183.27105613864467,9.87269916243056,10.00090510870357,0.04821558207699872
754,80.12546125461255,250.7056363020448,148.82821784465577,0.0,0.0,0.0
755,71.05461393596988,137.31239132836535,101.22765202972415,9.823398870947859,10.032848213988999,0.07085673104592571
756,54.0909780136467,165.34783133084497,141.08294996559258,9.893162613662165,10.970934599047583,0.08221595348238873
757,65.76344086021506,78.9973143736406,100.93548115498929,9.859621254300299,10.023761641075627,0.05323506367924379
758,77.06832298136646,152.13238622474964,107.80220894394562,9.792506676560297,10.824613405000889,0.1814168687785772
759,63.91891891891894,170.69401854668723,145.9758311553947,9.952792377755397,10.147562939955053,0.05492930047324917
760,85.03557910673732,116.79385960872929,84.64417129728763,9.811967242517046,10.023497956148027,0.06364091869999002
761,52.58988764044943,160.26767041437287,122.6595457272285,9.740028051898824,10.1092326615336,0.0729802903870867
762,69.19846153846154,219.37304182584032,157.55368253208457,9.821974421211888,9.96320509159282,0.04687875624412771
763,91.44578313253014,116.73284022838838,131.72595256864284,10.043760448832685,13.065971271842953,0.15997069643774472
764,63.998520710059175,183.82476536193542,116.0667135588804,9.860177870161275,12.034934445110439,0.12349098049846349
765,68.9659413434248,164.59229450815633,139.10767974532615,10.025168314519759,10.24351634748853,0.08218626896397231
766,56.747141041931386,202.61783567835053,181.51459657072274,9.915566426560144,10.114016251842509,0.06257244621907504
767,56.091673675357455,184.46098589687261,141.8018044272158,9.65825838034784,9.848728616470943,0.04822758804445343
768,78.24763705103972,156.50357583198485,135.9538914015233,10.01168383002618,10.23243779280676,0.0654920238513775
769,68.26939471440751,164.01130621661,113.43913679171817,9.829732537825684,10.026037054482687,0.07015039830545054
770,68.49056603773583,117.0251369055518,93.15863699949006,9.927917986928707,10.135533393786401,0.07008000588447096
771,69.25698324022346,145.42331554803962,113.72861281017448,9.584703580202326,9.7883281137544,0.06233435216176679
772,70.06153846153846,144.14689746095235,129.6271291304226,9.578749787556585,9.77838351559614,0.06264609551447442
773,76.32402234636872,210.56219414285954,137.73560767461598,9.80341206979373,10.035065367126611,0.0774220633535989
774,56.222222222222214,124.99121186436291,64.54518426306133,9.855142638145622,11.308045374869765,0.13323531306758207
775,61.98648648648649,133.9388999283925,97.18339108440397,9.653246439950758,9.842224239632216,0.05832322422026975
776,88.76204819277109,279.8521523431425,174.0782612220222,9.796571522477027,9.997348055307189,0.07031200829935287
777,81.63157894736842,193.4235976789168,169.72851813137564,9.940443715786868,10.15954083562539,0.06388735705290222
778,65.6826923076923,99.14306286753893,102.80808002388777,10.059753995349132,10.247372996226728,0.06699253659475538
779,58.897510980966324,155.9021368460622,108.21601698690165,9.90136986677323,10.176528938849554,0.05542892752186482
780,64.33363390441842,171.2653284054806,113.4658143168644,9.782249407741299,9.936458030706886,0.06356741460851058
781,66.97058823529412,197.62845849802372,139.68230071882553,9.597408632130067,9.802583653551464,0.05863266621257027
782,56.62380952380953,181.4474181749875,120.04417377886112,9.966080131903926,10.136684672689547,0.06108970120764579
783,60.31788079470197,397.228285419798,178.83889276018743,9.922064341892568,10.261731521246462,0.06966332903221252
784,80.45533141210373,200.23106823075602,157.82731113464135,9.561664958354308,9.735928153791788,0.0616312191141606
785,71.08095238095238,148.6720323215701,123.44847509090866,9.830431288875543,10.038620177855245,0.05812272071005672
786,54.21428571428571,186.16647166560983,156.97586172334013,9.861585679173855,10.05208590822868,0.06052973685502397
787,93.69230769230771,114.59184330773442,89.13915493450648,9.717456001069792,9.96228736596957,0.08403272770529288
788,59.29687499999999,186.57888598220026,148.73429029428286,9.895707998531678,10.081172254391126,0.06143272173260625
789,60.15737704918033,202.07283567009694,139.46937941227026,9.85088123483407,10.042051716217317,0.06582971676811486
790,56.72096774193548,237.77232619394744,166.67909904380556,9.832402987608479,10.01962120837762,0.0648083606434288
791,64.70588235294117,157.3807679221108,115.31414483336683,9.678432895569024,9.852881880029987,0.06477202729327844
792,71.42387543252595,277.081454312041,177.51510032106765,9.832358452629427,9.982539573065019,0.06933424576894795
793,73.56770395290161,132.269662994629,90.95544058049711,11.279112738024129,11.487827666638513,0.06310205646955247
794,68.2366957903098,129.58100737592576,109.79411249834958,9.875577027402052,10.12219069586184,0.0695206243709856
795,64.89468599033819,163.89891811426435,130.5637816886195,9.98452999049353,10.141652278029083,0.060998811053988765
796,67.2,195.91600948146677,135.02869222005233,9.740093390447575,9.968477699912393,0.06892114421363806
797,66.09869494290375,62.92612628415485,48.8329008660473,9.59696766784052,9.859159273361838,0.06003107729086614
798,64.25396825396825,242.581721205823,145.14259705107096,9.902369974748291,10.14960286398998,0.06502685737850251
799,72.59659969088099,103.48946396434565,74.36463910322956,9.833626746202015,10.015606689663878,0.06093507316576942
800,65.72522897585345,129.41830684429945,90.48495697145249,9.7268124766301,9.910999141188258,0.06362080771632292
801,58.750000000000014,115.58143094549867,85.69051051366162,9.826571453911042,9.976229980243918,0.05144446019372709
802,84.92307692307692,138.33992094861657,153.63944471804558,9.890845078469813,10.151814187369416,0.05976029459483264
803,78.6215139442231,219.05324383140402,150.61679630891865,9.721507740859813,12.147016865929361,0.31056571201663913
804,70.4352,154.87284337020125,109.64800523984607,9.921937392028813,10.114297319306445,0.07574902431103553
805,100.68367346938776,217.41433674756735,166.94744801814952,9.89103858096034,10.10071598696676,0.06069990871740585
806,68.41209829867677,181.1793042636845,130.55500716845557,9.87135966926027,10.096958483693554,0.05705625277889999
807,85.88243938280675,98.86762791772905,67.2469671671331,9.810559664616942,9.990588629098424,0.0676910832610695
808,56.28220858895706,196.7410524187009,155.0184470993968,9.882930175258574,10.09123832813053,0.07683758943062112
809,55.99180327868853,173.3520151254005,125.14542686671065,9.846696259122359,10.05395727496279,0.05908566033209141
810,69.36663124335813,158.10276679841894,125.63176441415486,9.672819134722399,9.971237957997156,0.09131697382827034
811,77.46951219512196,104.19832776414096,82.93085869580139,9.79949240988634,9.978636728104506,0.061832712172168736
812,73.4678899082569,105.3470118996013,84.38306628552101,9.777123843594909,9.95707588301135,0.04990537990523618
813,73.92857142857143,141.06210533109785,110.73465817892328,9.960080134512573,10.273792265980951,0.06895545653862495
814,81.54545454545456,127.53860173822346,112.37287085786761,9.782223357532326,10.001003293374696,0.06848098260903324
815,65.16806722689074,141.35203491185618,115.50842386361673,9.842449417651025,9.970035271152451,0.05114313189919394
816,58.329896907216494,161.61489361458618,137.3344365752214,9.725539147420665,9.95209280691914,0.07637721368739532
817,74.68882978723404,170.90304025367686,136.31959953807728,9.938834342435733,10.300756259433209,0.06273029974175776
818,60.16810344827587,144.92311432497257,91.23140028708842,9.946083494058074,10.096146560239967,0.03711599622519073
819,61.926778242677834,179.02630296275504,120.71044461039214,9.837324757935423,10.030838914835437,0.06125336983675124
820,72.06070038910507,149.8947340167136,100.16413585920868,9.626946489350466,9.818235016570442,0.06546623014862547
821,80.93601895734596,153.55998288458548,116.10826373521134,9.941631897722948,10.122528240858907,0.06467807139597127
822,57.880126182965306,101.7322051924505,103.15114647212235,9.778119124057014,9.975698153539263,0.06209390245200866
823,71.362143474503,171.43167066723203,113.68249859262481,9.746829847742159,9.94044813915002,0.07335584935240715
824,81.1953488372093,139.25033408220452,134.63720423303587,9.586741925326795,10.466318882075605,0.1648811826772549
825,69.0,257.6759843953616,119.082736561667,9.75324734543451,9.975587164409351,0.06725477927993904
826,69.85486725663716,145.22666459188807,129.03963425303135,9.900406306326861,10.119082829794712,0.05885544324562401
827,62.66253869969041,154.6777519436606,120.04607191522082,9.924866162729785,10.135805673697307,0.0542241627265566
828,65.1437125748503,115.52634962210739,130.26751530881054,9.721230644277107,9.974698848152954,0.07331188733499423
829,81.82838283828383,157.5952124651883,117.91950837528205,9.591765811985871,9.811733620931617,0.06484334065480825
830,52.635701275045555,118.67753789756554,160.26871020855788,9.791864319452545,10.858154984503528,0.10484062955404427
831,81.93223010244287,134.34820502532597,95.55659325136156,10.032690097737609,10.354104076901281,0.07464216574539025
832,88.90990990990993,151.12127310664104,105.50537863309728,9.839011811677135,10.03203780799077,0.06919042992073104
833,56.11563981042657,194.01337861731085,138.07144109396086,9.622954800193476,9.81544624191163,0.06534209412882488
834,62.13320999074933,177.64964053151868,163.09192238467955,9.780380758733015,9.929143160390248,0.06407856695709163
835,85.6935483870968,125.24221767523319,92.14399169220295,9.784769237442314,9.9488230355951,0.06922432843764677
836,68.12658227848102,140.67296774744807,113.90713544726555,9.883496352222505,10.124249941163844,0.05420927080885377
837,103.82022471910113,163.76000276517522,141.22443617488014,9.800691422335612,10.020565252177859,0.05900311541693595
838,82.1507197290432,82.32021961641394,75.39765320533417,9.782266299540614,9.929297628217308,0.05583373756060208
839,65.56146179401995,162.86436859649777,114.81427539373185,9.804733009440616,10.009998773413336,0.06561421287456587
840,69.51706910907579,147.89159631517555,114.24936104737269,9.796772055745208,9.983127814708125,0.06435138900786086
841,77.12154696132598,168.98219265266005,99.95747675047416,9.972606524358362,10.151163806671937,0.06916484732849962
842,106.09677419354837,217.3553689307118,150.8825247304869,9.683196326043,9.914085970011643,0.0546842689753697
843,88.74869109947645,134.7646412745638,89.85632830940841,9.845942616833515,10.029354440331769,0.06535455871341427
844,68.95522388059702,187.12118082418576,152.8389908563613,9.791052300232653,9.938571962247051,0.04321463894768749
845,97.95053003533567,243.7012208414962,177.02663836010683,9.806648184964159,9.972787849843025,0.051675605086829134
846,60.93214285714287,163.01263790290696,137.38016518111206,9.685918534568277,9.853369636465231,0.07887341575450196
847,60.238095238095234,203.31081645730217,145.70010240709547,9.747836970067413,9.90879041409556,0.06349901118954981
848,71.44721689059502,227.01008713779495,136.7616392347823,9.853077547663588,10.01657762038627,0.049462667277691365
849,68.61808118081181,124.544014681608,151.8554053496826,9.839180334577144,11.271201444026707,0.14096873728541334
850,71.19344262295081,93.43247418561855,108.61146176862968,9.816273015397377,10.005948206762131,0.051689565388331825
851,63.36234458259325,160.37602197642076,130.44559930698,9.801245941423668,10.021684175673018,0.06628751806656513
852,59.123661148977604,157.81186909698505,115.70551319162269,9.967740785456366,11.746381071113497,0.12638329265530127
853,71.62790697674419,129.21914767618443,93.84455235643217,9.646988978433797,9.805848324118585,0.06499533158094697
854,69.4054794520548,178.95603104402903,123.21517142985756,9.851507719500024,10.018603424239734,0.06618786354786174
855,62.85714285714287,132.50572405906186,93.6388332124424,9.804385383971297,9.96289634292892,0.07072210593092429
856,73.7158273381295,157.04803343106124,121.354892554898,9.957213881024014,10.561576751203766,0.06395950022852041
857,64.98287671232877,154.9509003497905,108.89597064172371,9.848665354123145,10.004190837475893,0.061519392485689155
858,96.89361702127657,234.39323945529904,179.2025099965144,9.839296408797267,10.13644072969124,0.061036035933232945
859,105.00000000000004,207.38596652819885,182.28141360543117,9.777797520898568,9.961382632043225,0.08953319230784874
860,101.98449612403101,207.0051132673445,176.53531882538607,9.883669762143768,10.035925876315003,0.05749813988513654
861,72.07506702412869,204.37511547294855,144.44450471759126,9.851410846881766,9.965766948524191,0.04864770689917074
862,87.86453201970441,200.81424340811833,130.88942197186927,9.916039244806994,10.15427679619932,0.06011432175774207
863,70.27184466019418,147.15144466089356,115.55967762545723,9.432908592583667,9.623149904707667,0.04987152074679296
864,65.34887892376682,158.8241519899133,110.10571301570117,9.773773738380187,9.909307703228478,0.062299069369301206
865,62.8255033557047,51.89977583388248,57.76522095757196,9.865001974533662,10.086357438689916,0.06636790282374197
866,66.63740122914838,194.8513397574741,117.3294043692954,9.880233201073414,10.082006751123059,0.06072616916922747
867,65.27842565597668,137.53090862584526,112.87822289130904,9.645988782474824,9.832878246666246,0.049000041005455956
868,71.55555555555556,185.39192726574817,126.92132576504244,9.778095617198465,9.947520797777203,0.04998483075530558
869,74.47814451382695,169.81487160276998,105.92212534900584,9.88033958013615,10.153871795007014,0.0701193827540452
870,71.96525679758311,154.0931130903602,99.91173478357197,9.811343049510832,9.986692011358803,0.056157423265059375
871,70.42192691029902,228.86188716052675,165.34130527727774,10.010785936223497,10.20753258723666,0.06261873245719261
872,81.85062611806799,124.3130354153301,99.82180536360933,9.593009390266136,9.744745067329761,0.05191050570125488
873,69.53673292999136,105.06117254371439,99.14504964040162,9.7863535925386,9.988679739300062,0.05564401211402847
874,66.05205047318613,167.63378465506128,137.02231066414765,9.628694562438113,9.810683692176482,0.05771611950307401
875,88.64233576642336,167.30467851383784,156.99235387800744,9.813822753108424,9.95128538982505,0.049841393595109924
876,61.09024390243902,149.56274084274102,107.5308453106405,10.028672029181928,10.185819312508915,0.06932649619723358
877,76.64516129032259,160.84577035079684,121.04711962332411,9.879500327753004,10.17296061885157,0.06586792270879385
878,76.40264900662253,211.57821128253943,131.45863789502337,9.897030930124595,10.10079279497231,0.06314136458799176
879,78.3584603047314,183.7479527453927,139.2511276414356,9.591922596549233,9.762580877695619,0.054615929339052356
880,72.46445497630333,113.76442404692479,96.52091989207725,9.902424490009874,10.113992829201274,0.0721127715552726
881,66.62068965517243,120.44454549803238,118.74500759352394,9.935655567309711,10.313250348431898,0.07161170779505878
882,86.70186335403726,103.99840395724453,72.24472948193255,9.636966554602848,9.911713443467894,0.08273699330360604
883,73.02264426588752,149.7753822129811,107.28338662362049,9.771454036825439,9.980671093430605,0.053451397528762726
884,88.93741677762982,164.31115759205426,134.40788646792765,9.666642764666381,13.150097088346028,0.32322116828695546
885,75.76936316695351,165.34783133084497,121.7081319297033,9.80001598652829,10.041132501137463,0.0664891984145616
886,72.40669456066945,169.03166347780962,118.91519928008329,9.889990785748084,10.080159974996578,0.06435492351260472
887,110.56752655538693,246.45398061167504,164.1108875837055,9.822335186890795,9.986533772963494,0.058367032649688046
888,89.46954813359528,234.20802153664266,154.93645410156614,9.947856678980155,10.116839874866322,0.06202606425847791
889,75.73993808049535,167.32561126666613,134.66893963334545,9.892078605609445,10.067971912551922,0.07105815783419409
890,69.1025641025641,208.94162614740662,135.7089277206302,9.891454730030262,10.068394301512386,0.057873630209946965
891,76.11172566371681,115.04201049922061,98.52005575756598,9.814156593553358,9.995330903746465,0.0578964960493547
892,97.3076923076923,247.03557312252968,147.75068004085574,9.822288806761984,10.05840185201905,0.06984720530589116
893,56.53445378151261,151.98103386033026,122.66078539951862,9.739011430316715,9.909187953413,0.05854758212207331
894,39.599999999999994,,306.7311390467144,9.861649625021181,11.426662894099564,0.14340802855602322
895,71.68333333333334,170.9782981023434,126.62402979948942,9.796316119571951,10.09501036740751,0.06884988864969989
896,94.7105719237435,263.3470342840891,193.29596947534645,9.977427542408718,10.382044272078836,0.06881982902841845
897,82.7679814385151,152.37198295415516,114.810411778937,9.729460567842334,9.97613958676998,0.06490680021574398
898,64.11155063291139,121.34712436415616,103.23240035796019,9.80492468394282,10.202630239148359,0.07370410396833162
899,60.720000000000006,191.92947942035855,142.08964968741773,9.771476182770556,9.918617974340192,0.0554134973731642
900,69.05161290322582,144.18186844374492,112.81665961411626,9.91160791885806,10.102167587826912,0.06505158620527866
901,58.94847972972973,146.94375021064747,123.90447801477295,9.73225494936414,10.557255202354751,0.09678787374005589
902,70.27968750000001,163.51049667830677,118.87934294223328,9.842969212869031,9.999628834967584,0.04486977540004391
903,62.022471910112365,125.18635829367517,109.67489192229806,9.898618723380572,10.044175631516328,0.06535201831745428
904,65.41176470588236,209.75375428051618,144.0984057053798,9.743760097362223,9.956371017175803,0.06320155105897228
905,85.3267326732673,146.62961357316124,94.37372764205514,9.919444786253077,10.072906544759007,0.068346285301842
906,115.34561403508772,109.24325106926139,94.65445938295053,9.755847135391326,9.937056706731079,0.07764768259271858
907,59.57613814756672,177.15664099047814,142.3451812850261,9.643866072298268,9.857404849408717,0.06481672463814761
908,65.218009478673,139.18232453343256,99.52223423164011,9.715199141136761,9.907520261543436,0.05789253171258729
909,53.44053282588011,194.9756072061758,189.54952769378573,9.873119804712536,11.471257179625638,0.10298894947574327
910,59.84455958549224,155.60045881337024,102.06172833448566,9.941680561632694,10.13227591822371,0.061197067606409986
911,60.39215686274509,168.14295293797468,133.9570302028802,9.975925516784033,10.110769752753296,0.053564393702640566
912,81.89360061680803,138.84072906765346,99.75808606363573,9.750978242364376,9.933500494239176,0.06349018980140535
913,75.57974683544303,150.06804447277602,115.81795557030513,9.779342625115587,9.983314998045277,0.05812802644846967
914,76.09680207433016,149.1055011886802,111.41478864657223,9.586785841981305,9.789511159700206,0.05995808618416866
915,78.1725888324873,167.75187175812025,114.32260325548995,9.940304325109901,10.104315415727248,0.05587297660155539
916,93.83754512635379,89.37639220874065,67.519657643097,9.691603110465184,10.161733233838678,0.06275284035300523
917,71.92518703241895,152.1422200486446,116.99103645496507,10.046450404985446,10.24762987295073,0.07284885815283397
918,65.84642233856893,151.50760950805284,105.84401564141258,9.941816234426842,10.114643831056211,0.06213141582685038
919,80.42384105960265,267.3468232898949,160.2751364967307,9.754136280561688,9.99012641376868,0.07269978953330578
920,79.04963384865744,168.81394379731987,132.42207041990838,9.664228707884241,10.042113222294505,0.07632606529940937
921,69.63302752293578,164.40027148684126,128.44329493495587,9.565409220704913,10.093167814234393,0.0733321419066866
922,62.3832,175.68746517076067,132.87460050715137,9.830231726280745,10.270879186281062,0.07963133725219537
923,66.63007159904535,215.5160307194786,144.05726219530533,9.815227500914975,10.010453136133682,0.07639869272496297
924,88.00000000000001,155.55792623290588,152.74622651011714,9.809098628589402,10.014872641289678,0.058272951822327834
925,79.4845995893224,127.58048771319034,102.43087776521294,9.751545616968661,9.872211167701742,0.051534836528833325
926,70.7847533632287,211.74066302368007,135.99810399286613,9.760713009774626,9.890221048125698,0.06011820954937715
927,66.42477876106194,97.67586796576799,74.56646726159636,9.796500291029338,10.008120760370993,0.057518047498168634
928,130.96470588235292,146.3969225504643,85.32348506778969,9.754608803143157,9.98405667124256,0.0739661511809431
929,71.27264731750218,145.30484318638395,114.99383345494829,9.758277480084839,9.940353820319109,0.11218288537923575
930,80.98042059463378,103.82288710597784,95.99123837615868,9.672865338206302,9.830975716753372,0.0594722949627161
931,78.57142857142857,126.24819542352971,148.05194805194805,9.785369464565385,9.965565000314868,0.06098765056477379
932,49.143884892086334,131.09188894685377,141.22033544851584,9.707393760937357,12.5979731247358,0.16331176794341645
933,58.449528936742944,95.25007545257351,112.06277287589754,9.871709829203404,10.085949497316676,0.06180852816354198
934,105.53299492385788,226.2669599105233,164.3628685448088,9.635660710795303,9.821236372909434,0.06013994055869255
935,80.68479604449938,200.15326792508301,144.22395700423348,9.632201249326888,9.786719392244876,0.06450530443011848
936,75.20740740740742,159.70329845460304,166.52027345933658,9.702941753339848,9.855530074459633,0.06744638765308833
937,70.03891708967853,128.90096981433481,93.967615828935,9.797462329537966,9.970476452628347,0.06171859353315955
938,104.8142857142857,147.1351126007384,142.17912648911212,9.681016369688558,10.199503237846411,0.07731519320779574
939,78.90169491525423,216.374705063038,145.38671921845926,9.782039573461422,10.05418919595077,0.06699781483813469
940,78.90169491525423,216.374705063038,145.38671921845926,9.782039573461422,10.05418919595077,0.06699781483813469
941,122.8927680798005,275.7715070522554,168.42043491571977,9.82081679557391,10.072824621487772,0.0640825899021448
942,68.56164383561645,162.98571945469004,108.18309079588438,9.856615221284187,10.020981854556325,0.06446988878629292
943,92.32915921288013,179.4790572443646,163.86589210112444,9.930349428499312,10.11535188952471,0.07297113399650235
944,106.66160849772385,227.3621020738257,165.39713317671857,9.697591697501284,9.978943125014338,0.056732405721073687
945,64.45112107623319,209.9838456152855,154.16467987754692,9.751077421284027,9.89545725319954,0.0584871431498371
946,63.64365482233502,170.09151122838432,125.74198267573573,10.14612245065927,10.370583210119369,0.06841965664892709
947,63.00000000000002,128.23647829955516,110.67360125558297,9.760566856624203,9.896577015113879,0.049019890878942485
948,65.04751847940867,172.91403206466126,138.95155629740194,9.764653981249497,9.892471614634548,0.052717182652562616
949,67.203125,225.48863082626272,140.9289231405881,9.96499049198602,10.603618201670685,0.0769183432543546
950,110.75536480686695,234.67079223395092,172.42963234354016,9.779479894210873,10.020520326936873,0.07670787641947348
951,79.43489583333334,223.87123634787665,143.57596590799716,9.747761349237267,9.958639118374531,0.0835289226099253
952,66.65569395017795,115.41222631669906,88.07094717713764,9.73879734592442,9.950378936279815,0.05891258101692391
953,69.29902395740906,145.13036225848316,117.82246580290268,9.796310982072514,9.940852547992257,0.0657981997534115
954,105.0188679245283,200.0293340011723,152.02440389009112,9.80804021978352,10.0541836435771,0.06247821098251575
955,61.95918367346938,201.31415516849765,133.47660558985007,9.595868896050648,9.807169446807622,0.06496011882010443
956,58.38461538461537,222.05199972220694,152.32046651601672,9.65906061596148,9.859007408898693,0.06133611728719816
957,104.25824175824175,230.92387141192773,163.19085446117523,9.609093316713688,9.936264418422182,0.08328379264180917
958,64.90304709141277,153.77223476800944,118.29766414802663,9.87513312777965,10.056687880029385,0.05054329693555807
959,64.01204819277109,181.28912991260682,150.15941401327757,9.641974224894932,9.821776199025821,0.0588818372044118
960,63.88888888888889,102.2509682018865,136.13373528303086,9.83401061145399,10.057962463725337,0.06605887516138366
961,69.0,186.7911314724351,138.05730590176267,9.902410717937252,10.150885381644853,0.0697941181935788
962,65.87628865979384,157.3942135520069,119.46222028872245,9.882265124883233,10.044576861677127,0.06500576699372247
963,66.25047438330172,207.90163159498678,148.31035580265623,9.95449018357643,11.132902163088348,0.10585981129269846
964,57.93893129770993,197.39581750096366,152.8780996507013,9.714919553383982,9.864924255260089,0.05772105414077579
965,70.7275021026072,202.56220622561906,131.43123937105926,9.782785341431687,9.984440604910045,0.06577014940915145
966,80.91684434968016,186.44231486277872,145.66920060727222,9.916974281787667,10.137172258669116,0.06445555525268543
967,65.69921875000001,218.48650213852287,145.95830343405996,9.745864761218742,9.949806525474294,0.06336648871741346
968,48.918429003021146,166.72003603219716,176.62179696394776,9.784547599082535,9.971175942956995,0.05764368988080978
969,66.81064483111567,159.06055952107553,113.51308976218833,9.783329139136887,10.030617727507154,0.06376147314326693
970,67.15576036866359,118.40804140618141,149.36745804624084,9.944083842622272,10.606810408862014,0.07523475610036494
971,76.8436944937833,137.3677379902629,106.5949141045134,9.914566483562135,10.072720386839501,0.05550852744224087
972,63.0659945004583,181.20968463180137,140.9184803291421,9.773128244687875,9.982465439970749,0.05527885534321532
973,75.21571906354515,181.1172133186789,116.90203321660317,9.79638133268735,10.024065444922728,0.06990358408002859
974,95.93261037955071,141.7041471701854,108.97678830707062,9.894834087927466,10.080770634872733,0.0739476765747204
975,68.71391076115486,274.11520674292774,198.23962162236128,9.683119187244253,9.85727691801081,0.06352741067047803
976,68.40909090909093,180.771570221754,124.73536374040248,9.7169823051399,9.915058324526644,0.09372103829366638
977,76.39824945295405,122.08602941847766,118.75128854687446,9.882374226277385,10.315722221104384,0.07620443239865547
978,63.45874587458746,210.61645775568863,143.4841288412053,9.82840396655639,10.166912881057396,0.05513905012319734
979,69.69115191986644,168.64127072917086,123.54910915036496,9.59220805886612,9.784209916860135,0.06382592981794577
980,63.87287376902417,201.54227326453696,131.0190368793235,9.876405103153557,10.057669717291024,0.05188537370920862
981,72.6208981001727,148.3924426515817,112.59861986774281,9.99908058881613,10.210581638655299,0.06450969350361721
982,67.203125,192.15069917224972,137.62984038082996,9.910989242125048,10.10308280818903,0.06603423380218262
983,100.64561170212767,81.2372797132922,63.51440790837123,9.763686496666098,9.933718080207745,0.057703085694658804
984,62.276923076923076,174.00712681945595,138.01604285601653,9.82865525545851,9.976934662555701,0.06097077335590292
985,74.49883990719259,96.73544514139193,123.2732691953332,9.808266229809217,10.765385198543795,0.08014911576513842
986,68.05479452054794,180.6668182470486,125.96631324474346,9.797724282051242,10.006290745875836,0.0878763836274271
987,73.01002004008015,185.49222044444778,126.53324000913774,9.924331547588347,10.38331875760261,0.07400325963000033
988,71.79652173913043,149.25469536267792,97.77712777591255,9.785178665687807,9.96879855249594,0.05828555785083698
989,73.42655367231637,105.328780960423,78.3694340877081,9.728210879293014,9.989157497481724,0.06639292907821533
990,61.95918367346938,93.3955657362176,72.80517762974384,9.76773499972808,11.34075317787473,0.19922309357274073
991,71.56133828996283,168.2967657034248,123.51079512358169,9.709892515365464,9.856139039652797,0.05525391271775665
992,108.96955503512879,167.50974928132274,155.60150698967277,9.71032624424828,9.921002989146993,0.0631233324406134
993,66.83018867924531,149.86013952716172,111.96794716879101,9.629249906260148,9.768506382566812,0.05242776508787556
994,75.42857142857143,150.04067139913013,118.06129590265337,9.750053136329326,9.902804811646757,0.046774669788324105
995,51.67065317387305,214.15061604622483,201.1965792884274,9.928712416516774,10.395456202137792,0.06245978177600026
996,75.74850299401199,158.62198910512376,93.18679543583478,9.83855311011598,10.08773121904978,0.0691566434383262
997,60.3358208955224,168.2879801896659,130.9522896847591,9.885535485250479,10.054501761169858,0.06826441699024216
998,68.3658088235294,142.93291910663615,111.78971811681306,9.747342382790123,9.960868765784499,0.06887945109879468
999,86.81135531135533,140.62478700670573,126.73675995645978,9.571410669246982,10.54433002087289,0.1876863799606899
1000,80.87161572052402,148.6578791460112,106.97068321017926,9.936721950313114,10.127761859082927,0.05772505176712594
1001,72.48990342405618,185.72389116336268,135.78243396954315,9.814609573706319,10.005383982297534,0.05948992415840661
1002,67.89396887159533,158.51048457010623,110.91285483726602,9.649842866082762,9.838571989921395,0.06770497566573498
1003,66.72748004561004,127.3832653771632,103.22898476724704,9.564491695033746,9.743296629953951,0.0732157466602157
1004,75.44731610337972,160.20622201141848,123.89649453574745,9.95490446272156,10.220418791491458,0.07347004588536178
1005,73.23684210526318,116.3128653046918,95.77193675290079,9.861030166838555,10.094931672085078,0.056655223857522446
1006,72.28571428571428,221.6416843380859,146.77541736935828,9.9551159496832,10.473547839866013,0.07012031136009024
1007,58.4679029957204,174.9351714110828,185.54214045094255,9.939284268158755,10.981908852634499,0.06646145566699739
1008,65.83423035522067,174.94330771870835,130.58803222044997,9.75316574687164,9.948927705063792,0.06522559528284701
1009,65.9175,147.41740702151498,128.3833933502017,9.883429114012943,10.072415563580433,0.05211614872011806
1010,59.06194690265488,128.38403808000052,113.39927798590428,9.882449599289044,10.063897031796632,0.06772107011546273
1011,99.35483870967744,277.9342150523726,166.94753418418753,9.896948654604307,10.734138509046925,0.06881718132221744
1012,96.3469675599436,220.98806544416558,141.44959825218444,10.124538483763734,10.501795944953983,0.10471367216363876
1013,79.28712871287131,96.93766588210116,72.62709779851728,9.835757478020948,10.00629954344763,0.05762343473575148
1014,70.44861878453038,141.34444157620985,124.15585419959307,9.823885948565039,10.007245130033738,0.058521727794971
1015,59.17821782178218,138.5139026108476,112.5707498996525,9.743953308267107,10.051347545897633,0.053207066833878366
1016,95.38931297709922,173.9190487478378,161.76261710553473,9.826280489274279,9.966750561646473,0.058924444904354445
1017,66.89375,174.75983277812148,118.65464162487184,9.844520929109441,9.985678038198266,0.04933952934879311
1018,63.369565217391326,166.9502210575702,119.0884587111002,9.810423817631076,9.988659462015105,0.06324338753670551
1019,70.60465116279072,183.39144805105474,135.36185193987197,9.769982171440645,10.415849311861212,0.09054123393240036
1020,82.19289340101524,235.42250031313927,173.97601912929474,9.65166050020694,9.950329162734361,0.07139107417551692
