heart_rate,hrv_rmssd,hrv_sdnn,label
72.66417352281226,48.668455142145376,46.93269563232047,0
155.4578313253012,158.97226611459365,72.41298071331059,0
69.0,84.88311665528185,69.12842942254593,0
72.3828072531901,50.661655688668425,38.665602302923425,0
72.13849287169045,56.702095047966175,119.78226502850016,0
70.26745040411461,69.42072852510958,61.20850605564224,0
58.140760507004664,81.57506611709942,89.4130079931388,0
63.71352431712192,40.780786922655835,55.24612576134343,0
55.84988962472406,76.54117284994888,52.25170867876909,0
69.79310344827587,34.144997058551766,20.75513958539539,0
58.42403781228899,51.48103480748298,43.482186829182126,0
74.56348470806302,102.05489713326524,96.54164670172906,0
72.65641025641025,117.05767881368156,82.7341516775415,0
60.84588804422943,83.68012611676421,62.029423039790736,0
79.0625,218.73462076263493,142.14602328602032,0
65.71428571428571,60.37649136964215,78.29014238074087,0
56.33603238866396,41.3150806373007,29.59577474951341,0
48.07600950118765,170.93526280499617,145.19640588448766,0
71.26760563380283,47.34482665047572,36.80652397003334,0
90.2654097171864,43.79775000293152,30.32135824219909,0
54.72096128170894,69.1033419858923,83.39174568072674,0
60.72,125.44490196533155,111.7955385275174,0
58.22745625841184,82.67391566542248,64.48555821406377,0
64.79916025192442,86.7186768957428,110.51886934831391,0
65.76939203354297,77.01538346995328,50.84526171513555,0
52.640322580645154,60.376491369642174,60.23404697272131,0
89.29411764705881,42.25474180433588,24.998242372872568,0
50.25636672325977,71.8623986471391,79.14228440399162,0
61.85220994475139,78.00429897754391,71.42188252068127,0
125.39999999999998,228.77148029229696,142.7394782476259,0
71.74881836596894,32.621495159314534,35.12212657274757,0
82.75877520537715,86.83144936696877,65.16746976740744,0
48.688524590163944,162.63384910081055,133.9186558971046,0
112.31026252983294,212.444209441332,124.53515692540896,0
61.19764011799411,104.14743861506084,86.95630798249056,0
66.31048387096774,37.30155353394634,26.96235850093686,0
70.6046511627907,47.829120118852074,55.27781180176115,0
75.7932489451477,61.19540659498655,40.33673870230318,0
51.72600834492352,52.84089840183335,68.9482476288073,0
57.71863117870723,85.25256404751649,88.1165881802686,0
76.76495726495726,42.82500702655822,56.36706589699778,0
115.45217391304354,214.5955772519509,163.03219710067734,0
70.10843373493977,36.18782240472767,35.49735552461398,0
62.743999999999986,71.74846101859792,66.15387872534923,0
82.5,139.49011098657326,118.1811572152257,0
60.3111111111111,101.03808050824928,95.75972873427018,0
55.35483870967741,103.37309747527289,100.57601038019511,0
58.47641509433962,87.16859123757244,56.44222210062403,0
72.89830508474576,42.41449565127745,33.85310341446416,0
76.46407927332781,90.76055293075882,65.53072963012004,0
57.460426703372335,44.35443539025944,82.46007295662847,0
80.85937500000001,101.94853452267564,63.42967057360991,0
62.82777036048065,53.79647047803496,55.53304026618026,0
63.79853235490327,53.36086435762233,64.60613921503735,0
67.51212938005392,46.76742911541195,46.788896837045385,0
70.85816876122084,81.28433912551425,70.76778237949152,0
56.14660390047075,94.85556023915316,72.67243021319207,0
52.98027314112292,77.6269174752542,75.18351213001326,0
63.852380952380955,49.22528451203472,55.17673596269348,0
69.89352517985611,64.80917384850635,78.57711921229702,0
55.93969849246231,69.65121299264908,62.83042921324364,0
84.4693548387097,59.64220047547208,103.37112936662226,0
49.60108917631042,39.94396463556612,42.49362927351999,0
56.59210526315789,99.96041439719048,137.0788465285624,0
64.23131170662907,86.52124859396372,53.50181951053216,0
98.73170731707316,91.6365463981789,71.08445933763912,0
58.45714285714286,97.48780360308793,125.9887219383973,0
79.89473684210525,46.37533382933211,54.445630966102335,0
48.0121130551817,57.1000093687443,52.55907826759649,0
81.77777777777779,41.47874039518206,33.56412613493833,0
82.99373695198328,48.06062281458164,33.55678652845457,0
62.71848739495798,77.26669781707521,71.22051645998461,0
63.9264705882353,54.064554499844945,54.07958325995346,0
63.420485175202145,42.9418558304436,30.010461037714716,0
66.48921832884096,50.86773785072627,73.88701820168579,0
79.08538350217079,88.76557188620009,93.31163205955032,0
114.30722891566263,258.9288383821188,172.6580662904151,0
57.4564723694171,76.87324023490298,106.67251203864112,0
67.97014925373135,50.236277415197016,55.614740765331874,0
59.29687499999999,48.256418879369974,78.18424876153303,0
80.63279445727483,162.0071267345391,137.73820181827722,0
62.021433355659745,69.59216150853368,60.98422116686295,0
67.35153583617748,61.192426903854134,44.43618341488622,0
55.2,54.29271302319723,44.19106674900768,0
80.63745019920319,42.42155943609641,33.5241016871292,0
56.53829936753337,77.08950477134431,57.66091962138175,0
76.04081632653062,147.53905327187792,91.58537443781027,0
65.45790554414785,116.94595098180731,112.64786755087522,0
60.720000000000006,30.443003329541853,36.796416452619134,0
61.00468854655057,56.603874339488705,83.5641011057604,0
63.38204592901879,77.72269409092293,56.557660163060014,0
55.29857142857142,54.45313811966654,36.97391441331954,0
73.748987854251,31.467088484245572,22.58120751120239,0
103.26530612244898,241.6406968505432,199.63409168655164,0
124.93827160493828,234.56222373763177,142.38852709917035,0
60.15682967959528,78.03132281309486,56.024149188281825,0
75.10344827586208,68.27622458493072,62.50134447550485,0
57.283018867924525,124.42177285792874,94.77927911685218,0
83.68759571209802,142.3160153712994,163.5408571865284,0
81.28372739916551,39.52569169960475,43.41127151966733,0
54.261551874455094,142.02744697477206,98.56821003467662,0
61.491660047656865,45.76156037478029,32.73457658210169,0
70.06153846153846,43.13874753610663,34.092171659200325,0
122.57142857142856,173.41826852553604,131.12714291789496,0
58.66666666666667,86.46749198821881,117.64704446433456,0
73.70086139389194,77.04975766647402,57.87323328719298,0
62.77830508474576,40.17905318043985,56.13013108976282,0
59.54920212765957,61.62756924921042,44.48839744324782,0
91.6794425087108,93.37935544958393,90.53602432336768,0
79.21861777150917,45.877431743030705,32.50747581391506,0
63.50199203187251,37.22759485058385,90.38364166040256,0
86.39024390243902,206.95251382213831,189.68466439571796,0
66.54246575342465,65.44976548622004,63.223734644613266,0
71.96444444444445,66.33568313662241,59.583730707472,0
60.63914780292942,40.19003556500475,46.18853265601612,0
57.474387527839646,97.4741756162172,135.38579696695425,0
53.9009083402147,131.57414154643448,101.5541571441061,0
61.42574257425743,75.86697684262438,56.01396320097233,0
66.61436170212767,46.2506460804048,58.59180648525574,0
52.4956772334294,87.79094202349239,88.68848496598325,0
51.38862234407129,82.85108337012167,112.46659012552172,0
66.08979591836734,76.50066415547366,77.48218669744166,0
100.59036144578312,312.60299588452335,192.9899136210984,0
67.37110481586402,38.08790955175616,38.11376400176488,0
90.79435483870968,70.5045521751656,41.04585019100588,0
59.83357664233577,82.09292522275662,106.0302676751973,0
111.10220440881766,231.21133482709416,137.79483264259338,0
72.1034241788959,86.8425212502297,66.53631203126716,0
70.09523809523809,74.7471607322113,75.00082995681947,0
70.52399086062454,95.33955559771184,122.00630202749608,0
76.01345291479818,41.92332694781902,45.28308905054685,0
61.081967213114766,38.69347867085224,35.19489175866293,0
63.20536344389557,58.99889958090508,57.52796795344948,0
68.72027027027029,28.369192196255828,32.558892635352755,0
75.109375,37.975056238360594,47.25532220345556,0
76.47067669172932,73.37477958770864,61.55718228185042,0
68.6978102189781,136.68309566038488,122.69398672670567,0
66.87224669603523,64.35727939779129,46.26363601074949,0
65.63679245283019,36.358348261177824,29.244685518326673,0
80.8099730458221,31.327823079099492,33.0820538446321,0
55.54890219560878,83.84665389563804,111.80939661965512,0
84.95136575616256,60.42842814601554,37.9802135925505,0
64.68175765645806,49.04503753357943,41.318499712642605,0
72.72469635627533,41.184827845986376,31.766058270193405,0
69.37096774193549,62.215145552402674,65.55625287082856,0
62.063002680965155,47.595235489297686,33.24241647996028,0
81.70899915895711,55.65630908844329,44.633353421824744,0
44.01822700911351,83.53553351329307,85.75288766378152,0
64.55282392026578,44.54040868134475,40.133778139525575,0
68.21327967806842,30.770709255396103,20.874055823201104,0
73.35302013422819,54.09736663765935,51.71965618495335,0
50.56413890857547,67.69556036187157,53.769632034802065,0
86.3481228668942,46.91902571757311,63.285557500791896,0
84.15351812366738,67.50296947272462,183.9213589925176,0
54.33308984660336,100.26432133228948,92.23327698797056,0
65.42222222222223,45.36785542327853,39.636509361956605,0
65.40375260597636,77.38695734170439,53.66087086961356,0
76.41632653061224,86.89661369086248,61.756258659522,0
75.3206106870229,132.0812757296668,95.37480779177938,0
57.11060948081264,79.25697902184429,46.82752006203915,0
67.89776357827476,305.3130494402231,123.74142857600862,0
69.04828551434571,56.99606222370303,43.01547992417727,0
75.9,68.8397917133762,45.29845748440202,0
82.40119760479041,31.637375075076047,32.62836177696918,0
81.04312114989733,38.20338604578107,25.84372149589541,0
69.10648148148148,105.38687161586988,89.11791598213111,0
79.72462739531582,66.50408662342878,68.9028949898515,0
55.842342342342334,93.96956944143196,108.22302060981475,0
77.32439678284183,38.457231934983994,28.561535714054468,0
80.39581881533101,36.17924200806773,45.775454443533896,0
68.8381548084441,69.50896702391047,96.37787360434946,0
121.76470588235291,198.0233209466458,130.98591327153167,0
65.17564402810305,59.94367939961695,45.01749123497181,0
68.47224080267559,82.34712942904449,65.11344795742544,0
69.00000000000001,38.3276641396514,46.47174166776719,0
72.57370517928287,206.0718786768188,141.0965085020019,0
54.06854838709677,88.38213349801538,74.77786298817286,0
80.96000000000001,82.83820325809097,48.61017342390848,0
51.15680880330124,42.30972522616974,29.217988668669577,0
80.00133422281522,33.490851610131365,39.26198292252655,0
142.07881773399015,185.3919272657482,130.18088493581874,0
61.051124744376274,42.53182504734944,77.85577638303614,0
61.498987170830524,57.301278971911614,46.48355036183964,0
68.3508064516129,82.85267028636366,52.69285038844338,0
57.181236673773995,69.57014912098037,53.50851253531832,0
92.85638297872342,37.05986015324075,22.895536336955196,0
65.11528150134048,68.64137974331061,41.85048010399558,0
56.697674418604656,79.82263467152588,68.9502533004771,0
62.962466487935664,89.55390653537303,64.87814982515036,0
52.16494845360825,83.21479369362439,73.30923711854311,0
51.537037037037045,93.81282276109565,97.3497462029757,0
98.81717451523544,41.41391159060283,44.22905993542916,0
54.214285714285715,190.7908045240659,109.56683238829784,0
62.17582417582418,67.85731820386982,53.083581983750946,0
64.96874999999999,39.52569169960472,23.675214585749664,0
70.09372846312888,49.85424694758031,44.54698160262604,0
97.725321888412,367.6101825639975,223.52895979392355,0
48.22692889561271,112.8933933947588,71.76990764139892,0
68.70258620689654,38.94009352346943,33.19253169310819,0
65.20618556701031,61.399106667639956,99.06371666605877,0
60.84168336673346,52.224234803234275,48.09861485183618,0
77.58439811701415,43.53810709317077,44.114492325251206,0
78.72606382978724,46.59357189982016,46.89463991591882,0
62.82167042889391,58.5234921098211,38.99291402443561,0
53.11978465679677,55.89776926375868,50.44287024334769,0
63.25,158.102766798419,96.817776394592,0
52.694259012016026,129.68225777618542,102.26226852442772,0
83.30968169761273,49.24145666078019,36.252758725502474,0
95.67226890756304,208.682925710898,171.7031310423706,0
91.28285077951,221.05351430253648,122.72459033895296,0
70.27777777777779,38.74292722607141,24.539520056002686,0
63.25,58.53249780228187,43.052908188007315,0
64.33907284768212,40.148181832677466,36.78674064188593,0
63.57531227038942,66.095375245026,58.79888197961329,0
84.8993288590604,90.22362572166192,65.49348672634935,0
89.61686746987952,163.81227578524565,127.3684776192672,0
80.7333799860042,48.626457330375146,47.990824649996256,0
88.33846153846153,31.32038797205777,24.36434088009073,0
49.47555555555555,54.89051974936076,52.472446519979286,0
75.95063375583722,47.750233177282375,29.923730311627704,0
64.29834254143645,119.95592463772408,100.7638096873624,0
74.35102040816327,72.88177436595166,159.29910789649205,0
60.80106809078771,65.69726274592885,61.64262221496491,0
82.35632953784327,36.70785695851129,33.4109066874029,0
71.9787685774947,39.8285749925517,26.21067770812703,0
51.78461538461538,75.20275727446815,70.65811870133444,0
62.21311475409835,34.90055946306994,29.92837072885523,0
76.10569105691057,31.033038888747853,22.408051451130255,0
76.060691601976,67.95525573436635,55.278924844653595,0
70.12500000000001,38.63065434191468,31.623972352326057,0
57.014084507042256,70.50455217516556,68.68934421288458,0
79.37254901960785,238.5616055819041,139.65705558401748,0
64.94117647058823,28.16982786955724,23.69481977921303,0
79.67967698519516,35.752333349141935,28.232265688018895,0
93.05215004574563,117.38313363153767,67.67567883759064,0
51.61669242658424,80.45063155717115,64.9025938490422,0
68.60401721664275,56.59217811571676,72.33260325657737,0
64.88059701492537,74.79285669291069,49.56793328340217,0
63.56157635467981,71.08080601838519,63.899856497942466,0
73.29906542056077,57.559635856013834,41.62903918733777,0
84.95886716115982,35.72810269007313,36.69623286691459,0
54.97786720321933,54.56350130163422,47.14736616948588,0
53.14660831509847,87.64252105171325,169.4130984743076,0
63.07183098591549,74.50956081533965,45.947419305908106,0
57.55450236966824,62.83556640545315,49.30112855759547,0
60.80106809078771,70.55574754837056,59.92919850089152,0
56.55888223552895,102.3791022975244,73.8615370962884,0
56.58494623655914,68.68832884182909,52.98459081132089,0
81.08974358974358,61.876384372483464,48.96933852044199,0
63.95121951219512,39.15103213783783,30.995765395779777,0
65.29032258064517,33.405306511008526,33.50953548974932,0
80.74468085106382,61.90321715100943,61.57218153121435,0
84.55973154362417,39.76597167385104,28.052148149955983,0
51.180040458530016,41.87576785485977,42.283254135387615,0
53.82978723404256,108.64573453537972,61.572181531214326,0
100.0232558139535,283.4971645764165,154.71569178901768,0
67.89452603471294,33.70762313922692,33.94053415997288,0
85.46094299788881,54.62925924784198,34.932612004572206,0
60.33215046132008,76.06722914224324,50.53858876324975,0
69.35689655172413,80.25223265698413,106.01974760227282,0
74.23331085637223,62.92612628415483,44.6749000028846,0
65.38767395626243,52.520483264499205,33.604747654966474,0
95.41714285714286,291.12489847146713,155.7993775686583,0
81.44869215291752,35.296871015074345,34.932612004572206,0
78.17524980784012,159.90409932488825,112.03498627730032,0
63.46325016857722,58.58237310851143,39.71546124486173,0
64.32203389830508,107.52150599790863,131.03228817589545,0
61.57079646017699,59.541368280833574,47.20161515967818,0
52.12017167381975,57.192870073074246,34.443527782477034,0
71.44859813084112,68.13196067618817,48.01482897586961,0
52.541760722347625,43.697296315617926,38.856913746674735,0
71.29335260115607,48.02315385722969,45.84512453626211,0
68.80453257790369,45.54671618166256,37.54615650585635,0
60.963855421686745,36.386348533530615,47.704524348436586,0
68.77669902912619,62.862152218534234,113.24771948126244,0
71.2418772563177,76.96522691401793,84.0393734331727,0
65.33422999327504,57.64499465881254,46.737243682096185,0
57.33996023856859,50.10795976651277,34.013587042315244,0
81.23076923076923,30.809634899365896,24.67884139079482,0
67.5984375,89.92829391217725,67.88565703083233,0
63.9375,73.2381665859673,65.038636974917,0
66.34714003944774,44.60943571422932,38.902046026412016,0
56.30400000000001,71.4839736963462,73.409782135718,0
77.53225806451613,37.07838545314965,34.685525276748635,0
65.0281124497992,67.18075775484564,97.62594560383144,0
62.70317002881845,131.25730464539703,108.3489409055036,0
55.80882352941177,55.59314699990307,47.43083003952565,0
70.83999999999999,58.13455754368715,60.618042217910435,0
121.8148148148148,190.9796751902036,143.16986631324863,0
114.33371958285052,224.35835488250396,153.39724463591165,0
86.4957264957265,75.59534974248648,49.16938855582897,0
71.79729729729729,47.820666010059774,53.56766222758405,0
66.92372288313506,48.677083535997745,40.34866727100449,0
75.44123572867696,42.39920288148117,40.555281001449025,0
69.6822033898305,47.50396937370206,41.883065631432174,0
68.0162932790224,56.11234882153403,44.14234449962957,0
63.023622047244096,60.06202833892032,70.5090431493519,0
82.8,395.2569169960474,165.61008023684496,0
83.31726907630522,50.6480570692613,54.52588737059394,0
102.31361760660248,67.62340305549343,48.47269238549202,0
71.98762886597939,56.105955344749056,52.445015286688864,0
75.4747899159664,54.890519749360735,85.09681708690991,0
65.20422004521477,137.6724466264248,102.25729848407866,0
80.91902834008098,31.960772334491704,21.98016974682424,0
53.66833810888251,45.31198973365285,33.74964163164748,0
82.26726057906458,37.1637774722085,32.738570486395524,0
87.10886075949367,151.55283341568563,115.8954657207871,0
77.07757404795485,37.198575024281446,39.32695364201212,0
56.164439876670095,67.44622043413288,47.03216950066729,0
67.98529411764707,55.04431808875817,48.47534324623708,0
62.911764705882355,43.53418527114838,61.26744244158594,0
43.371428571428574,73.2988408571112,48.7915731105429,0
59.52941176470588,43.171437254762886,49.91560604396892,0
50.36018957345972,162.28241516883023,104.42259745289066,0
74.78035714285713,176.8633859864879,131.75229093857897,0
62.60851926977686,40.50178168363478,42.73603952009632,0
102.78991596638656,214.76298931019696,178.91615626067878,0
59.003533568904594,112.16268414153168,76.47788952135382,0
74.49883990719259,177.67269728196368,184.30463243483817,0
69.20627802690584,99.4232043436364,83.11614466370303,0
64.41301272984441,79.05138339920948,73.72244971561413,0
75.39666424945612,83.81952660546955,62.71597625615263,0
60.49594095940961,86.98469948508684,121.29527768481915,0
57.12903225806451,90.60393408596924,58.27150604333791,0
72.78804725503822,91.11021604515592,59.154863463026096,0
58.66126656848307,93.75626708605984,76.43222255010842,0
81.12224448897797,34.157961052080424,23.544965528545173,0
79.70965250965253,100.31024041934636,92.80342457957256,0
88.93333333333335,45.90492136844848,32.71091726863842,0
69.56634746922025,50.71246130633829,115.06922230046492,0
65.74015748031496,78.55575855475017,71.41432595886377,0
69.13864701942398,92.3809917278478,74.69815155988337,0
60.84168336673346,105.4576570035098,110.95977063058204,0
55.99597585513077,45.956191340483805,40.35967253208467,0
65.74477958236659,84.45964020497948,77.72632614726467,0
59.26126126126127,86.5596257298469,104.33177219077828,0
52.21308724832215,98.29277848909882,110.21315019398672,0
89.53351206434316,29.051514749440138,23.76707968976456,0
53.991792065663475,134.85155817574687,105.61966368307536,0
87.26470588235293,44.55350687562329,33.16778849649549,0
58.81140350877194,131.2110092703386,86.20636699037085,0
61.74193548387097,84.43742776188371,81.08149771152159,0
73.8267821452365,33.26582654269459,31.366610770394143,0
72.23279648609078,58.96892046332871,43.57065154800329,0
103.16504854368934,254.40723491967955,185.52945838797575,0
58.47641509433962,68.46050622801886,100.04371314725724,0
65.67234042553191,92.6959636328741,68.68398885505084,0
73.9218106995885,46.767429115411986,31.697691578214677,0
75.6806358381503,43.57489468494164,48.93643382980706,0
70.22775800711744,143.42253660788694,157.7515569604481,0
64.81120747164778,30.290752756316724,38.780454388437725,0
77.71675531914894,46.89910679257541,44.8561208869226,0
76.84240687679083,44.38278594310005,36.74751284884755,0
95.72972972972973,355.7312252964427,176.0413017291914,0
51.56250000000001,76.17581910351238,63.320108757314735,0
78.66558704453442,90.78752887218693,86.90027137139555,0
78.35512732278046,60.317385637050734,48.20334156428617,0
70.3640081799591,37.71438194425014,51.31905208068121,0
63.9264705882353,53.59645430825884,66.79882880585316,0
89.17353139770424,30.437945932160034,20.74001582938227,0
58.45549738219895,69.42763780573048,48.82968700059,0
52.68280871670702,70.58617043769591,52.72407537347176,0
62.91176470588237,33.94851784469578,42.28770611188834,0
53.64819277108434,94.51475368022102,86.17702818238605,0
64.45387994143485,57.40201379149366,46.52050747138071,0
74.22237106496985,34.545745987159144,26.20294251461988,0
79.0625,86.00534281043376,99.68000168315014,0
67.79738562091504,84.93561710117564,54.432060979439306,0
65.33422999327506,40.76116662470865,43.4907161350253,0
68.25906040268457,55.25891663395507,95.62783041921833,0
73.34598792062123,80.84596873673829,70.83171379310161,0
55.01627218934912,118.1466668723884,103.168828890262,0
61.377617328519854,59.96826159437582,67.84282680687087,0
99.7619893428064,160.90126311434227,157.6039388370654,0
77.14798206278027,52.52048326449926,69.27489846751723,0
64.66125760649088,37.564503028576375,28.914533212379464,0
52.97718120805369,84.66468940261856,73.49122508526493,0
62.93886156008433,60.68375285207424,56.40928367393554,0
71.37531486146095,102.57426383164852,68.25280121945029,0
83.59704499664205,29.131530877078617,19.973343637424723,0
78.65814266487214,45.79022405461856,34.34264911180686,0
81.83288409703503,80.65213627245372,55.159232161869014,0
58.15163607342378,130.42812828210364,102.44946423326594,0
60.80106809078771,91.4738618004866,69.57968867726427,0
63.14880000000001,167.17493465677896,117.54939752036066,0
53.48275862068965,66.53696789345675,53.04181509014344,0
86.81372549019609,61.0363633319694,62.93788726411189,0
88.81371889710827,36.664529230957136,29.743105362469507,0
92.33823529411764,36.55978109489225,23.59114904921213,0
72.97088693297225,34.06686195143615,30.12358572280506,0
63.71851851851851,76.87324023490311,64.40544566168097,0
61.0251256281407,71.25595406055324,42.29598607165063,0
105.9794661190965,189.19988514371352,156.85411019839833,0
80.33983286908078,55.137219957542754,32.428660844851045,0
56.71875000000001,60.85378331379452,48.24056470524873,0
65.55465587044534,34.85838354498798,33.668510796539024,0
56.83458134785568,36.87495745223232,23.441619015882175,0
44.71120689655173,148.55035947008807,114.14020544829592,0
84.984555984556,207.76975614144143,168.88545532013123,0
51.18004045853,48.57326520069242,35.006466127248274,0
50.90853658536586,54.55063710216239,56.70044498045093,0
51.45762711864406,47.86798978810264,36.97289907879389,0
58.34454358270418,62.4956059321814,60.90909247946097,0
69.18498659517427,52.45453979345618,37.05505103582705,0
53.09876543209877,60.023409445142,82.15874877353473,0
55.12575655682581,36.013711589677456,32.90552890204801,0
65.29032258064517,59.34079717837173,61.70946638733595,0
49.88732394366197,55.897769263758704,59.221278835129965,0
64.5732586068855,131.97272578336865,95.81202767593668,0
74.57686212361334,45.03580301263301,50.74524733426597,0
77.08593750000001,198.88925889974897,145.47576257016814,0
80.6469401479489,107.40967912834108,64.36912807755196,0
81.55809267965077,72.30235299844401,45.70892473846624,0
72.60485651214128,83.76766503788247,72.62510733637514,0
73.34873949579834,61.50091740833983,83.99621522495232,0
68.31,122.7656710759738,99.25729002383235,0
69.13864701942398,100.9445313173684,64.81767679417176,0
62.10957004160888,68.6603913431056,50.560627759397654,0
67.64888588791356,50.236277415197016,73.82687318984874,0
83.11815561959656,47.85308460642785,82.95153749688741,0
68.62753036437249,44.32477678755136,40.70128797276933,0
62.45255474452554,68.08537734298416,140.83803201717075,0
73.45161290322581,64.99813848166306,59.65339353186702,0
126.5,209.1503012699281,146.25738486841826,0
84.45680819912153,53.31493430908645,33.912711435200976,0
92.70229007633588,191.42250236244632,147.1469625675438,0
69.04615384615384,49.48080163730035,29.92784390108344,0
108.82720588235291,155.3336775039736,109.6058038682134,0
76.00858369098712,53.374751375256906,38.94057515430078,0
55.2744436952124,111.92729524799488,110.68055338054684,0
63.33512786002692,50.607462424069546,45.989261244093925,0
58.11638591117918,55.89776926375867,78.5119937893131,0
68.4169014084507,51.02744856663259,39.44841754612476,0
69.3709677419355,40.973996470262115,61.95262773529049,0
60.14909335124245,50.31869958286693,65.632332667272,0
65.45790554414785,116.36048572236952,91.37764798748996,0
54.35809018567639,45.42454271859515,56.84815646010129,0
50.398406374501995,126.2601907114506,130.7673326909231,0
82.8183632734531,51.404040011943906,45.38423260332176,0
70.58015267175573,51.65166074936312,48.946890478889806,0
72.04411764705883,36.28745118703471,42.64480989190125,0
73.40228341168569,51.17098597694366,41.57322287034515,0
63.71458551941238,162.47199749418675,105.6480778304243,0
101.84664536741212,277.8068520285467,162.23874977986034,0
69.79310344827587,38.63065434191466,31.33957351013383,0
65.34437086092714,202.1872101873888,128.92316842270716,0
73.6992582602832,43.24737651706721,35.26665073857932,0
51.111111111111114,50.18743318642343,33.77076579176891,0
54.85210084033613,38.98790212775268,30.403227150549153,0
68.0952380952381,36.1980608608399,32.31457648059934,0
86.0955223880597,369.6115978683936,202.035540539696,0
60.456506110711715,118.58465952404806,109.12727691559816,0
57.3216453135536,61.4644435982275,45.43064664526846,0
96.48305084745762,336.0514063549748,199.1857832828907,0
71.59232613908874,56.40364174013247,51.34456020998115,0
67.25498281786942,108.04305338106192,81.2666938132432,0
65.59969673995452,51.21964302690066,59.89272001023279,0
109.15725806451611,32.57562781391829,21.297381412433303,0
82.76190476190477,44.36290563484929,44.41918673023073,0
53.99007444168735,144.08984347199222,103.4255588126497,0
46.99057873485868,54.64147919190441,37.65063120846648,0
82.32838038632985,89.27426127640787,67.98566967611703,0
69.963687150838,50.47493090774612,44.04066669265834,0
85.4065639651708,69.68676202420497,41.07231475701486,0
77.94778067885117,117.7330994246686,117.42273983526596,0
103.70058139534888,43.697296315617905,41.5154151785299,0
80.84023668639053,65.24299031862908,83.12469578720992,0
66.26677445432499,120.84096306624896,90.09023127035395,0
62.75409836065574,87.27036429177717,109.717868338558,0
86.65547347212893,31.09864792369341,20.660181252288364,0
66.7124132613724,44.52970056514682,35.72358885622701,0
73.76470588235294,33.40530651100857,23.35130468134351,0
69.65182186234817,41.257556922673224,52.31341548477094,0
60.338912133891206,135.98425564750065,97.0410134361606,0
69.56131744919412,74.29606185661277,62.55679471499398,0
62.58494337108595,59.08734112247961,63.60173362318723,0
74.15212840195396,89.44701689423206,102.57581797538737,0
66.30555555555557,49.282249249377365,58.30287476201025,0
56.63424383744171,40.589353205728834,32.058342600722035,0
63.52863436123349,101.05782607820689,63.98400873405325,0
64.44339622641509,34.04572210332447,32.86479918115012,0
58.3452461227242,41.58927121020963,40.207167365159776,0
65.64870259481039,57.61810172772032,40.13377926421402,0
82.05405405405405,44.1910667490077,40.29825385440091,0
67.98529411764704,56.31964520545571,55.64191432978157,0
66.90499510284036,88.09656850758482,83.66934179435997,0
65.42222222222223,31.494825015399,28.960904366831382,0
71.29335260115606,76.29386631380461,64.56618667526301,0
81.4590282813633,47.58334114062025,30.181944652465905,0
67.21389645776567,36.25326611002861,32.440203510730605,0
61.77241899020347,60.457806546383075,48.46972077629432,0
61.70731707317074,75.10057717428799,50.10053581510293,0
80.64673913043481,106.72812283828272,73.42416522946914,0
71.12449799196787,112.5692193058963,81.79477792086647,0
75.84804928131418,39.24635468911556,32.37839923704815,0
57.283018867924525,71.30576598838456,49.5480767215817,0
72.34127594158339,68.46050622801891,125.29162314824396,0
70.03648068669527,95.33955559771178,81.63839805560994,0
43.04347826086955,82.40091354738614,114.07041276370678,0
52.55804480651731,39.1284384846311,30.961767581861864,0
58.50304259634887,33.82029517422621,32.62822371824033,0
57.96980461811722,46.19357389650411,54.08471618110359,0
100.15670103092783,51.72833383407819,37.98381141340456,0
61.69686706181202,74.55743635221498,53.35942964203698,0
50.191036002939015,90.4619976713564,85.04121171688806,0
62.99598393574298,65.20315421807443,49.03451363771366,0
65.07166778298728,63.5774355507417,49.92548595315745,0
64.15616045845273,53.34399669026309,55.23546917618757,0
77.87427745664742,33.30833879843417,26.43005616092907,0
74.6902286902287,34.71581287168695,46.33000784181523,0
61.83299389002036,49.08786789501547,42.9510495723401,0
47.4375,39.52569169960475,85.38525294345008,0
82.25615763546799,41.09685730514122,53.881557093568624,0
84.21337126600284,190.6305284664015,147.48125885137327,0
73.6992582602832,32.49906924083154,35.87664044245609,0
125.37053571428572,222.982664833251,116.88562646375328,0
59.33432835820896,50.86258232890402,45.27846254464957,0
70.93457943925233,99.74597124807032,80.22839181891082,0
70.5109489051095,42.559834154795674,35.17655138830607,0
68.58823529411765,75.75611442687033,69.11943686021928,0
86.65547347212895,70.73200611373444,58.34694123732387,0
81.97200000000001,53.029280098809245,43.079897436867704,0
54.09679572763686,71.16068964608112,73.96617590725529,0
75.00208768267224,45.391614448433366,37.79824126653222,0
63.60189573459717,71.73308710896025,63.53756073466069,0
66.73691556175855,92.76735060043028,114.85214301021551,0
68.58125421443022,42.69262647172497,26.35633048632959,0
62.17064846416382,95.80394975131088,119.07923242770237,0
72.44617092119867,168.93091356863877,139.27656559363453,0
54.141318977119774,39.52569169960473,27.643751201209085,0
75.44123572867697,44.85201673925548,37.86306719035847,0
68.84353741496598,203.3337953701958,141.12111174262608,0
71.02941176470588,37.7681061622889,26.86702936955464,0
64.65827686350437,116.42094843661982,83.20417834982078,0
74.7228590694538,34.23025311400943,43.827183593801635,0
53.661454792658056,56.17110961880827,52.1935676500544,0
96.8936170212766,220.0697376612657,152.9405371046627,0
56.60338983050848,112.05402566686932,97.13730787842306,0
82.59287054409005,171.531180056542,129.4017822152697,0
57.45950704225352,94.45338951318068,68.8481783659307,0
56.22222222222223,45.411562423225455,36.358348261177795,0
80.19622641509432,295.45289303806425,220.81098923592404,0
67.89452603471295,33.70762313922688,24.33797574743228,0
83.20134228187919,128.68632882292258,134.9344287912813,0
52.177458033573146,86.93709662512974,74.22237057886332,0
76.11142061281336,58.45928639426498,134.88087551986132,0
51.318458417849904,71.64640056719095,52.49035668311154,0
74.83810792804798,31.715165186220094,26.411142645179183,0
61.29205921938089,49.890447543138976,39.76650401261288,0
59.73134328358208,55.897769263758704,78.37879428829153,0
75.96906278434943,57.94170047548207,42.29662657437918,0
84.50301810865193,42.98910660658112,27.056284035128897,0
75.20366972477063,49.19352421160458,52.19014337571625,0
93.05747126436783,117.04698421964218,63.6086620038722,0
77.41695382494831,62.230979736044624,45.86378322125426,0
56.26475037821482,49.1054547593385,44.09341088558985,0
90.85541358439812,34.48859831198791,25.964233214448583,0
81.73846153846154,225.3311116796716,175.31535512433678,0
70.9977728285078,60.5250192481246,46.41004331239583,0
81.2483745123537,35.10982323577826,25.023330769773445,0
54.40477863668306,62.87706790321875,47.77504458628982,0
86.2863157894737,204.01164095752864,161.63498985456874,0
59.4271978021978,50.84155560423722,36.3242517265344,0
69.27380952380952,82.58745172438965,72.70732359960877,0
69.62334954829743,71.64640056719094,84.04958738279142,0
116.46031746031748,261.81109287533144,161.63518691970663,0
59.84946236559141,56.422642462160475,69.63852846784415,0
71.69199178644763,47.207487803410714,37.44087675629991,0
70.72383524645511,34.56421471127297,22.89911908266791,0
77.67736339982655,73.40485601355168,62.31401328724317,0
63.92647058823529,38.22941310867001,35.18992072872866,0
79.5725806451613,59.75722893426517,42.34839853202834,0
110.6875,88.3821334980153,109.1986426076438,0
56.8345813478557,47.503969373702006,35.08891301684134,0
69.63302752293578,65.27453152923083,58.09066583675519,0
113.20677966101694,137.8095423021873,136.74408899093086,0
74.1726907630522,77.10606001791584,68.64226105036755,0
62.21311475409835,39.52569169960464,191.3631373424538,0
71.41737426518618,39.78715992726128,64.31352620735443,0
85.56808199121522,48.95838239409743,42.44761580910226,0
73.55047106325706,96.12373320685109,69.50029520464848,0
60.53010164190775,86.8314493669688,75.41961172256293,0
64.82997582594683,54.15958806677266,36.367172317806265,0
54.03223640026863,41.0177487480451,35.40630164954647,0
73.74898785425101,74.31682807435718,43.57297943123502,0
66.9402985074627,77.46702664128242,70.05949924349916,0
87.79287155346334,34.29730558397726,23.240549461844896,0
62.2565445026178,112.73580351734992,84.95067731342625,0
83.09791827293756,65.77472682512598,48.729527905180866,0
74.47177419354838,45.64033748534591,43.7066133967417,0
67.65129007036748,60.122273434765425,43.182573960031206,0
110.4,208.3565591227539,134.6438302764802,0
72.13222591362124,50.9490098888241,37.61574707321964,0
72.62668463611861,38.087909551756184,33.271842782350234,0
86.85828343313375,39.29249974290186,52.79814154089135,0
71.64457142857142,202.5863054046902,154.21583902973893,0
60.01635991820041,140.6399110044826,112.27844991549966,0
54.25833924769341,50.34272177351425,53.04987191457277,0
59.335504885993494,118.3643806224677,124.42573628144994,0
52.996312684365776,196.20667102681492,142.74968942457184,0
70.51094890510949,40.65522449201809,57.75213444879475,0
67.93846153846154,55.44514829825039,58.55055777910736,0
55.07422402159245,75.39839915765708,54.557143784208186,0
71.60377358490565,49.9964847457451,96.49451079631385,0
62.398299078667605,90.25616805841776,75.34872695753026,0
58.65533230293663,62.23466280530691,84.27040614220667,0
79.01917808219179,151.23420134157303,101.44527014967014,0
106.38583270535044,48.68008857248773,37.626962435957935,0
68.57009345794393,64.83790768891107,156.1223028654551,0
76.01517450682852,62.98965003079808,42.95226033546798,0
79.65853658536587,61.0363633319694,60.0307323574395,0
86.59731543624162,371.4854329346952,220.3275097043875,0
73.2,53.74704376680513,44.061426812674135,0
54.51851851851852,85.2800338610367,105.09178987848708,0
67.15576036866359,79.05138339920943,62.87959881624667,0
88.64233576642337,156.27190379299662,199.28897262943383,0
90.73972602739728,53.33058525153693,40.933097897353655,0
51.950718685831625,50.18743318642343,42.782795660821535,0
67.97014925373136,94.4069969888491,64.15983643538227,0
80.85219707057257,72.39171578662902,55.18577867764112,0
76.79430097951915,120.7163640376338,74.15023851076815,0
62.22983870967743,51.78720423460758,40.02707240712894,0
72.38280725319008,34.39286805836491,28.122988232066113,0
68.56845031271716,45.911202400340514,45.399346804329774,0
71.46241457858768,54.45809990728632,75.35856481831397,0
71.35897435897436,56.99606222370308,66.19116962341886,0
62.140350877192986,115.9120814119777,77.69534139111724,0
94.80916030534353,46.032107224534435,43.8932739862431,0
76.5725971370143,44.43589447704889,32.07010586962521,0
51.808873720136525,105.17905450398553,111.16490996383584,0
54.96610169491527,141.31531340659066,101.03572714032232,0
50.24738675958187,109.59028168388753,111.11604211419716,0
62.22983870967743,80.84268224844506,70.58922481122957,0
81.4291390728477,36.70785695851129,27.9893239636949,0
67.49125364431488,71.35039539300179,67.75466129550863,0
75.34004024144869,83.01297620919979,53.06208776216582,0
68.48120300751879,97.71012499467282,136.44476401322785,0
85.49543218552357,86.76562546331348,75.54156075396025,0
52.52595155709343,45.282368527231625,32.83250538702797,0
72.20756756756755,85.74326395994314,90.95151112479088,0
82.05405405405405,43.24737651706721,38.0284745461544,0
79.24593967517401,148.94421882542903,111.15883720373384,0
76.11142061281336,43.55519091061975,39.46464812387227,0
49.5219707057257,94.6074217150532,89.11895422850128,0
72.71856287425149,36.93568427411539,33.549981534030564,0
60.13386978785663,124.87437053438276,98.08405389901048,0
124.52343750000004,243.95310070412071,141.26353168425214,0
57.43783783783784,115.4523390691434,99.4173735836195,0
65.13217993079586,43.89547101174615,33.73994293611942,0
85.71584699453553,65.75841162536484,91.57110478630868,0
63.88376753507015,66.02473786752464,61.682550755407256,0
72.45823389021479,64.54518426306133,54.2069079767344,0
50.39430894308944,43.448306845431226,45.61657018826714,0
83.49000000000001,98.68238899116734,83.67966690482007,0
115.7949940405244,196.77965661464285,127.33569569761453,0
65.48656294200849,71.91443891657585,95.08499722912264,0
63.703217334208816,66.20048943505407,57.04988326901082,0
49.03964757709251,66.5316530853892,46.121083913019895,0
79.62948207171314,50.03652999425231,40.92280991980495,0
67.68859649122807,78.53861225779707,69.18949521653707,0
53.67751060820368,52.05841026139404,62.26519736763705,0
68.3508064516129,49.37716183931913,40.70983776552676,0
54.69340584636303,49.93635666055588,39.07993886665342,0
77.65095285857574,124.2537941491503,107.1258274389848,0
80.94598337950139,112.2666553999008,67.76221730927257,0
55.98658843252305,128.59746726635544,101.19865125405816,0
60.14909335124245,46.42057071262487,35.15680783386335,0
47.4375,86.19460992777933,74.6315543928801,0
80.29722921914356,76.78149109543591,65.20048212192273,0
60.88511216859279,45.24517561046168,32.434430058043084,0
60.37500000000001,132.4703904601392,84.13136321711657,0
60.34862385321101,274.6558217281831,150.1865495315107,0
64.28380386329867,81.98019887336142,93.28673970177752,0
68.3508064516129,41.28323856656861,47.08411288828954,0
58.78125,70.46857128373057,101.81904080425852,0
100.83857142857144,63.92154466898339,38.60789646538574,0
51.80887372013652,75.54538769203643,59.81322510048045,0
59.708,46.42057071262482,56.46494943580221,0
55.97830802603037,44.460801095492904,31.93582543290161,0
75.9,229.79354709484005,146.77541736935828,0
65.64324324324323,68.09731795642965,61.51136165014194,0
67.5576534052596,35.69116592478971,32.43333252856866,0
96.31979695431473,316.45247274700546,207.434204156497,0
47.81102362204725,280.8828142994446,220.73426782301064,0
65.2026845637584,60.78582820235325,52.96882816796334,0
74.62222222222222,31.593093038950727,30.136813146517397,0
60.18951612903226,57.793144465351546,42.47569500675922,0
73.67952127659574,38.69347867085221,35.6780843782242,0
55.83923705722071,71.61700717084938,49.92356288970846,0
50.20830401125969,121.2420612202874,90.50517265048528,0
68.76845637583892,129.51431176428855,100.87210175348976,0
89.74148296593184,264.3931421524532,205.99791609381697,0
73.40228341168567,52.654510172358,34.75014760232425,0
52.59374999999999,50.818746470920395,46.31962426562485,0
98.84651162790698,209.915021558812,156.4047316145064,0
76.65647840531561,42.8144316449853,41.56371369787635,0
105.6,217.09166078108143,177.1367366960397,0
74.87432432432432,30.898654544291368,27.956750540745222,0
112.89243027888446,225.90814492071473,142.10407777735347,0
53.77941176470589,104.1433174731161,75.08959339632707,0
58.46351351351351,47.82912011885211,32.24277910703189,0
66.66891891891892,33.1433000617557,22.752553279257732,0
61.59256128486897,55.299914970224954,80.87874072549813,0
75.07723577235772,39.250247983573736,34.149866330004826,0
55.95844504021448,48.10913987748488,36.190235895117944,0
71.41129032258064,45.88771240013296,35.153884621735465,0
75.49193548387096,55.8977692637587,45.28473110613533,0
65.34437086092716,87.15454424832039,116.51926744607096,0
54.751060820367755,113.07162278091911,93.62600093615691,0
55.133171912832935,65.54594447342689,67.49011053947666,0
76.42708333333334,141.46401222746886,149.2420041454792,0
77.70583994232155,74.02458965373599,55.03732245154177,0
70.0789277736411,115.17874336537838,88.0804202958265,0
48.90201342281879,84.92986168073195,98.1394394956494,0
49.292988929889304,90.8722582689502,116.94272702343048,0
75.04719101123595,155.84080806468876,165.5331825082639,0
69.09375,37.370896542873815,28.94895674918361,0
83.71776155717764,66.83670582247373,56.67510234712168,0
51.1685393258427,51.258866754175735,53.35561721032038,0
72.96128170894525,40.07852542483175,32.0288804255925,0
77.7684630738523,39.00214948877195,32.237192070443164,0
52.60938628158845,68.21200992263049,79.86634566349629,0
111.61764705882352,251.15148274977932,171.10561914556018,0
65.0281124497992,49.797690778554326,110.08338661711164,0
63.1622746185853,88.38213349801542,104.81556312621242,0
104.12642905178213,42.72280860803061,34.75700379212765,0
60.189516129032256,67.26979789697741,55.4544170605611,0
69.13864701942398,31.66476762508318,28.30325232257577,0
78.95637583892618,154.29250165194202,164.571748568278,0
90.3847328244275,159.33315708099897,107.8486720942376,0
63.83606557377049,39.18347147734784,54.49105488755345,0
58.9106830122592,104.0127892776622,105.1473879768559,0
67.93115318416524,72.37564480945534,86.97193518022377,0
68.90650406504065,46.41177810515641,28.131954498416256,0
66.08841259209645,62.30000105196885,67.20949530993298,0
57.55989048596852,155.41344600498468,148.86594612280155,0
78.3671128107075,130.41300354983474,77.31076519696029,0
72.38145695364237,40.35210215313728,33.57243050377834,0
74.22727272727273,53.83440510727265,39.68610348075849,0
70.33174224343676,154.7388781431335,152.41752843093067,0
77.47034482758622,176.16063085526807,206.39860122189745,0
50.784000000000006,98.24164364852304,86.52907049513922,0
71.04524180967239,47.96678863374843,36.772821441245995,0
68.30490261920752,51.9469360215629,46.22627107346993,0
77.37625754527164,42.814431644985305,30.052049538576384,0
62.75196850393702,73.26550956492481,54.71274930829528,0
72.14056224899598,69.10943548636583,70.96558917765384,0
75.49193548387096,38.7049997307088,33.4930358008565,0
60.04449938195304,114.45138476569606,117.01639897169233,0
108.61328790459966,262.4918067188258,170.2224846602852,0
52.45121951219512,59.420143788035205,40.2261157013438,0
69.47850208044382,53.633754371447395,47.292099706311234,0
72.39515518546555,102.59062205898022,77.45686369907519,0
73.40228341168567,71.29454380292191,45.07892618141833,0
57.94854771784232,66.07853780360006,65.21846677829843,0
66.31535836177476,42.59414277314819,59.7467420501462,0
62.3099787685775,39.5256916996048,58.11768129523408,0
83.07972972972975,34.79608075426682,30.4347164973653,0
74.62222222222222,37.84296868602127,35.96452846481264,0
66.47826086956522,116.40860934617127,154.49328725987857,0
49.853887399463815,55.60587291216777,37.50690630817995,0
70.93457943925235,32.62149515931453,29.42702252014767,0
77.56204379562045,36.55353316165088,25.02142109122518,0
68.45882352941177,117.1820021261299,111.58400467948395,0
52.775846294602005,51.681673338037086,39.97478437814776,0
72.61503416856492,132.3001346630836,78.6470258451955,0
65.29239766081872,39.65066841032007,45.77713847935734,0
70.29664429530203,40.102739620228625,34.52258503366982,0
54.14131897711979,67.79903654903543,57.94956277145918,0
65.13217993079584,90.56473705446324,93.53181659518812,0
123.7761904761905,133.51816001165048,87.16750319778035,0
64.71242774566474,72.16370981622738,43.250518902844426,0
138.35937500000003,216.607577588014,111.57000880909165,0
64.05063291139241,72.16370981622741,114.62450592885374,0
53.299122214719794,67.55967084305202,106.14078733461024,0
96.8936170212766,312.9775951751645,170.915657214327,0
69.92122830440589,54.86061480584473,64.22920909851531,0
66.26595030221625,47.13138346921662,30.000356056051064,0
83.66062364031906,151.32272005055196,91.06361343353446,0
69.32437877770316,44.51962938994962,77.03177705780858,0
68.34106412005458,78.74198345113248,44.86362630333699,0
64.67227505486467,116.67245898000505,95.17010088137692,0
47.86486486486487,85.9929848331,70.22306834623615,0
57.53058510638298,50.10795976651282,68.96087589183449,0
55.08973487423522,114.14803280890904,98.18642099174605,0
116.76923076923076,337.1932514379375,174.22076364247897,0
61.29205921938089,45.73693090024335,28.28841970169161,0
67.53386454183268,42.13452892403364,37.62661487605913,0
56.672,112.55519985017148,77.88319720007748,0
49.099730458221025,80.09570056940997,73.87240280634323,0
85.4638069705094,41.83905886875122,26.316829388499087,0
61.62060889929743,77.45422111567363,86.67581150904412,0
95.96551724137932,302.41277338671836,212.73101136350243,0
58.00218340611355,57.67274195026719,48.62574848472272,0
65.38202247191013,200.43183906605145,137.39471449600745,0
77.42818791946308,37.35822629448703,30.12845508208912,0
50.36018957345972,51.02744856663264,61.85460841390922,0
109.21428571428572,340.59428557989634,126.32806618438032,0
51.71543086172345,58.891954251981595,48.77046492304821,0
54.693405846363014,78.28758400476578,117.17813015975749,0
55.498984427894385,129.05230561256457,115.15016028750412,0
64.21497919556171,57.30127897191156,68.28549758407424,0
67.5897810218978,46.02549484107366,74.23056303567513,0
72.40669456066945,55.89776926375867,51.276559315820386,0
60.720000000000006,63.138802354643495,45.44653475218502,0
75.01744186046513,183.69881483987743,105.47590069485008,0
92.31607629427792,39.18690194860632,25.29431556744812,0
70.65159574468086,41.20838222471831,32.5545687304338,0
63.72105619498985,65.74426851053835,45.19140277558915,0
66.0,55.67191876736144,44.19106674900767,0
79.76146788990826,100.13490422509275,83.01986109704507,0
53.08406186953599,40.67160121956732,36.57224604353728,0
57.83896477354422,42.15104903010819,37.54109314237666,0
81.4831013916501,49.6043493992535,37.49450585526482,0
69.15459297983571,30.074541907220613,28.10990988593771,0
50.4969450101833,70.79771166075322,54.39933951790713,0
77.6888888888889,69.216998875171,96.91131948724484,0
65.44923504867874,71.62043702201258,68.76851490583606,0
49.471698113207545,66.21528584775616,67.92106393723533,0
77.18644067796612,256.15575883035024,178.3285830375613,0
72.5862785862786,37.71438194425013,41.88368313096386,0
60.72,276.67984189723313,183.27309279635776,0
62.43964935940661,37.14854329346955,27.291440016396947,0
69.48591549295776,55.67191876736146,58.1033952476315,0
77.52553542009885,69.04816083680164,39.87376200717045,0
76.1029411764706,25.99193475183515,22.259512075829125,0
57.67164179104477,63.73326283239956,66.43673984048611,0
61.814419225634175,59.50771958174556,59.245147155640346,0
85.84830339321357,51.75127831683615,42.53236020378191,0
58.62620689655172,80.14179881815838,49.366765810405745,0
62.00136147038801,69.99053886442928,45.91997870314482,0
64.80607814761215,62.71840737301823,59.65736413450309,0
62.65087956698241,43.597871166730705,28.977748687873913,0
72.43568464730293,188.37749652865355,178.47683292616904,0
65.64324324324325,71.64640056719094,67.20094124869287,0
68.23651452282158,95.6582402377042,65.78596940735065,0
66.71325648414987,66.69727856717967,49.92253038102304,0
74.1439588688946,167.51405246714936,152.74272831937276,0
70.76599634369286,76.00528873716009,76.01456923344477,0
70.10843373493975,63.94918641932136,41.38716129504137,0
65.36842105263159,67.13838578105938,93.28117591285218,0
78.8834110592938,30.216236646499546,26.990724608464127,0
83.4289544235925,41.19820605905517,26.50675230862339,0
67.64888588791356,58.007856577497435,62.733314339845066,0
71.12449799196787,31.56321776698382,25.77687681651796,0
57.31813576494428,207.7579548089203,138.6802759883436,0
65.33422999327506,46.71437472610898,45.143174107150415,0
66.08979591836736,43.12606526403008,36.28564926276772,0
59.56779661016951,60.96831561695072,58.98538182281371,0
51.81691233514352,61.72875963976525,93.29903282594051,0
57.45418326693227,48.98179438988552,36.98021392683828,0
77.01477501678978,70.52236296092691,53.11111593124718,0
55.343750000000014,50.48746036826125,61.68255075540724,0
69.20627802690582,41.88244607320293,31.0886814900412,0
58.85294117647059,50.215288787827966,42.00909092932383,0
77.81115107913668,77.0036614866577,115.68078480627842,0
84.50301810865191,50.14868139839951,60.56712451291832,0
67.84923282188126,35.75233334914188,35.376471831903565,0
90.55093833780164,52.79441342046395,48.8681252510687,0
66.30889235569423,87.3945926312358,93.49863372832232,0
70.64285714285715,74.99472711861766,63.43160768116964,0
75.971671388102,133.16111089267204,119.8112533870174,0
64.57393652937206,36.198060860839945,26.230685689650382,0
76.00133511348466,33.76451368289523,34.74266081443903,0
54.50381679389313,46.23352799397814,56.61423166890421,0
78.59467455621305,46.06411944142521,49.79199928864733,0
56.78557114228456,39.52569169960461,26.39978008083706,0
62.66666666666666,106.48437634329945,88.10864196464506,0
71.55555555555559,44.450254113706485,31.966527057522654,0
64.14084507042253,104.57515063496405,99.17953263624256,0
62.0787037037037,44.964146956088655,34.820247684178575,0
96.62833675564684,64.85475526817132,42.428430980418526,0
50.78007117437723,112.74431541313136,82.44101208074994,0
52.46280991735539,119.37773966415608,90.43420498113971,0
59.970370370370375,95.00793874740422,65.12562414260904,0
63.60335195530727,115.71937623895646,128.17271680648545,0
85.45777777777779,66.69452151290048,43.42547481828189,0
86.25000000000001,63.52866113961104,49.33032861334886,0
77.75121951219512,42.90989314955014,76.12929951498847,0
47.860178204249486,64.4534355539062,69.76911032410351,0
65.11029411764706,118.80401707695736,88.01340606843011,0
64.42440318302387,42.5471656520132,31.150000525984396,0
73.43393501805053,42.17340440109384,27.645270518223068,0
62.48178137651822,27.47912202188962,25.14560735039495,0
77.15109890109889,60.55591670240527,49.10520215601413,0
97.38113207547173,208.61607229713337,177.8314175863561,0
75.10344827586205,47.50396937370209,50.33393553587422,0
78.73979591836738,147.39246699299082,85.02389483446596,0
88.1303317535545,156.5858277207472,144.23872809806568,0
81.97200000000002,129.14078460636,103.669542827435,0
85.36178861788618,90.11104316505576,55.576339676728075,0
46.92741935483871,91.84940741993876,69.55183483364175,0
68.30490261920752,47.91741467456583,35.366632735111445,0
81.64755838641189,66.42579517731232,67.91110761065443,0
57.54935622317597,81.82595565324358,53.87107557120799,0
68.20149761742682,46.50975536873932,84.63640231317007,0
86.19152542372882,89.84309418304254,51.083117576046874,0
55.34908845374747,78.49006470061187,70.3783655632345,0
66.08841259209645,29.644268774703527,30.982643241975023,0
75.9,52.28757531748202,47.82912011885211,0
71.52879581151834,34.982656251256266,24.843453006114977,0
65.36842105263159,76.9798078039686,61.16990899070759,0
66.62390276839973,40.74215045076734,28.156489882128817,0
83.96017699115046,51.75127831683614,44.60627977759964,0
46.77733598409543,108.4172469332932,142.98452907179586,0
51.387948544346656,152.24696513509616,132.09152641598092,0
86.34495412844039,278.2710242019078,170.9005587647093,0
65.55465587044534,68.82177789867204,59.37853429704504,0
73.21875000000001,59.04937345409474,72.95954985428212,0
69.55466237942125,65.77472682512594,49.734196177910256,0
59.14285714285713,49.19352421160461,102.62030255202392,0
49.62258543833582,111.96177733834334,100.88318463073271,0
59.113886847905945,76.32826236005579,68.57820229739818,0
121.18487394957984,187.25520953296305,159.32976192108683,0
79.7923076923077,158.25708871587912,116.95533073259465,0
63.711678832116775,51.02744856663261,68.11452546006673,0
80.27884615384616,309.7160161922487,161.17615157747613,0
70.62845583277141,87.05300314656189,64.06039323569578,0
82.72479564032697,94.51475368022102,60.30097352724252,0
64.08774834437087,110.38924935785724,90.77258471395068,0
56.26563706563706,76.77276543018864,139.85840424316316,0
70.18150684931507,101.27541569450123,85.14648291152606,1
77.96374622356497,313.0132479172263,177.34437410392815,1
78.16412556053812,198.8604743645873,136.53434919064094,1
54.6525353283458,153.1026803233437,129.0402373729402,1
76.24825662482569,120.73190433885942,87.77208277943531,1
65.14371257485028,186.7039884159208,131.37839375459416,1
53.86720867208672,143.07821844938314,176.3041323015122,1
68.12903225806453,184.7890250926434,132.65948284662042,1
62.49251497005987,131.32087058676936,76.37314606831949,1
65.5440414507772,90.01143439845303,66.77853622748735,1
76.92933618843684,94.5021011026971,79.59445659443354,1
54.77947072975141,174.3168147920944,120.06740857062316,1
63.229323308270686,93.68740133143224,90.13584178286229,1
96.0759493670886,293.13037498401826,175.10669539748247,1
81.06965944272447,107.90676713360452,79.87315831493866,1
54.20492454328833,145.40620790408394,93.02481714960516,1
75.75076219512195,112.2558249651618,89.9835953540838,1
99.67715458276334,204.4921420151851,185.6094216038355,1
55.89189189189189,100.16687440566984,112.9225008906318,1
70.02088772845954,43.52792631269878,43.956035582940906,1
58.49436090225565,127.53860173822343,88.14521893887948,1
81.09141660851363,68.75015056124474,56.474217754392534,1
91.36434108527132,86.54238537190248,59.21291863034524,1
60.963855421686745,123.82055743780698,81.86685840793669,1
60.85523385300669,67.18075775484566,82.24998155611789,1
70.0,123.58220766887489,86.49501076764409,1
80.21951219512195,133.29526828015992,91.79907069920743,1
69.63302752293579,104.8795913100322,74.38624057566183,1
63.48202494497432,158.4683228165895,109.63702817183444,1
94.0353982300885,300.7302295260429,186.30688372903177,1
59.33185840707965,135.04529354151774,104.556534675647,1
104.4791271347249,164.42902003141282,107.01100478927444,1
64.22360248447205,133.46635155656747,104.3591563653092,1
96.76494023904382,262.9275631551398,143.00351421350103,1
72.3349217154527,100.19954304471749,72.41877748090378,1
60.052747252747245,167.13339535071916,115.46611177105758,1
73.88495575221239,100.39535731240352,69.89145747224893,1
67.35153583617749,121.26752421777913,102.09263235257411,1
71.16666666666669,124.99818250288249,91.44871873499906,1
62.02143335565975,158.8421446435583,82.10475765674676,1
66.91270527225583,178.96018059560112,137.92193273826294,1
60.93525179856117,53.6296520736378,62.36180706608856,1
103.125,154.5108277777855,107.72666665529368,1
61.28902953586498,150.28286845096216,128.0395650878558,1
78.15582558970696,88.79382204284423,68.70523164831697,1
59.02598366740906,94.77682633217422,77.44176235432698,1
84.33333333333333,128.57756447429804,82.01514886685595,1
69.70441176470588,148.26714896799533,105.68895711033572,1
76.59633027522936,137.2013014135673,95.5649982288595,1
73.5933429811867,111.57697421577286,79.59104944950639,1
60.462711864406785,94.0224455045723,98.26067896041395,1
68.22471910112361,141.19028537147625,102.48680529890824,1
96.0759493670886,302.31340989680547,176.58741425840853,1
82.82038834951456,109.76408250193886,87.6850508409155,1
39.02841677943165,113.4824064017786,110.23624963171852,1
48.77276326207443,168.67410990612964,151.86998494059304,1
58.40065952184668,106.61241690548007,92.3983945871438,1
62.86666666666666,54.650822011360866,76.88191280199321,1
84.4304084720121,151.29899137366513,104.24084587552944,1
74.26187050359712,111.46231710516037,102.21588623403518,1
66.0,164.61942324574716,110.6248723566974,1
79.53846153846152,103.6657842333207,115.83456681438732,1
71.73314801945796,76.61844815771697,56.1480477829502,1
82.31127450980392,95.2040510676649,76.14641510690319,1
76.96153846153845,226.82834483960303,176.7327366689977,1
60.43478260869565,185.5164942352829,150.6751412597065,1
81.79886685552408,82.71348973001692,67.14373633527217,1
69.67494356659142,153.1734390407175,103.74276857713164,1
51.26257753273605,162.76450829556538,137.34330895920797,1
54.1127572016461,194.71620267453687,139.08529566749374,1
62.401006711409394,54.914153989314634,85.40557188072229,1
61.4673366834171,144.5071155713361,102.14845420168264,1
81.26959847036329,142.63932156463517,121.39213135230769,1
49.538156590683855,218.6465987824487,183.21102308911733,1
66.11978221415609,65.40391625783566,52.880745579717775,1
60.3271719038817,75.49974782217548,99.38441342605395,1
82.37481031866464,110.37439275157956,78.45914793665122,1
82.98492840994724,115.36831122506987,87.97344912372971,1
58.86122448979592,114.99385575616212,68.95390275102173,1
66.50363372093022,146.39715036142144,109.75037337504403,1
58.815276695245515,92.19864597038358,93.68967922600856,1
57.73431132844338,97.20759701201024,102.13388101110404,1
53.96470588235295,171.6908474010676,132.96665081296626,1
72.99266503667482,120.21269822723752,77.62485261655252,1
64.27567567567567,163.94887290976493,142.29089961859805,1
62.07984420642649,134.95082323017192,100.6612180404332,1
78.90070367474588,115.10125024024228,91.58820501201558,1
57.62738853503187,122.4331664608104,98.66344836910544,1
55.65536205316224,190.306326652754,135.48364163511835,1
89.35744680851064,90.81005959070532,66.5063679226481,1
51.406374501992026,132.31898486402886,118.66821813694344,1
51.406374501992026,132.31898486402886,118.66821813694344,1
95.44311377245508,261.91278683639126,161.3190463934961,1
58.54585930543188,150.80741757967655,131.98197592437137,1
75.84825493171473,119.57059265576407,91.03154764555124,1
103.224,202.66111355684853,145.44673564529802,1
59.38386308068459,130.67550285861537,97.7898982850271,1
65.69965870307168,191.0499925784042,121.75807782623134,1
58.584905660377366,57.21319086606687,112.35999222097416,1
68.32067510548524,138.9306344163523,98.92995940296224,1
84.92507204610952,242.10165513241247,192.74730808981153,1
82.40571428571428,342.587664493275,203.2954055095908,1
83.31726907630522,73.4879250359311,49.39241668735949,1
76.86075949367088,67.07732311651044,44.9406099173704,1
78.42828008157717,119.99297094022492,78.97436110654976,1
65.09671532846716,37.15669258462677,41.65996493650938,1
76.09345794392523,132.01554729776387,103.02509880906878,1
68.90444258172674,80.32191619547356,73.48469295954582,1
69.02356020942409,222.64728110679573,134.08505962140163,1
52.93685202639019,166.88824645498235,104.39493796438448,1
91.7309941520468,108.24556472434114,65.71005343223321,1
121.69620253164554,175.2850421034265,129.4307487439341,1
65.40361445783132,124.02703440281007,110.25110441149492,1
72.24945054945056,128.9601835852582,90.72807109656034,1
71.42028985507247,171.86338010215644,154.90917787567133,1
60.2831541218638,148.8308260073981,108.27496311606032,1
73.75344452501814,85.86041105228638,64.1159963149951,1
70.34634146341465,151.9441712077839,136.50950461013454,1
72.58970358814352,95.05533722769071,67.36277439901473,1
51.70104068117314,198.64585754326845,199.19292446059796,1
71.26129317980514,43.29822588973642,51.84024818251251,1
55.71888988361683,141.09541004300831,121.20878160996207,1
38.8125,152.1791971351181,137.48331877469064,1
102.28782287822878,173.8029196612633,158.7777050657429,1
57.97156398104265,164.64838566813336,110.0114200065687,1
55.828371278458846,127.24348695383236,88.48228325648904,1
98.02094240837695,238.0193633968385,204.99498457533997,1
64.09069585613761,107.72887650106672,98.54276107331476,1
57.81777445855115,126.54395726151871,102.00780211592895,1
62.55466130114018,151.98103386033029,112.0156048917205,1
59.90182868142446,139.6597038893128,127.58895792203374,1
74.65573770491804,240.42539645447508,136.92101245603774,1
81.46311475409833,102.34867869857688,79.71143460416907,1
77.0,232.5683936170303,164.24937367713923,1
73.07805907172997,85.00191407759648,66.10478030595209,1
99.45517241379312,272.9849272700713,147.80378338532648,1
73.75142531356899,156.15804167242285,128.15257036784692,1
80.26206896551724,122.89036960591322,181.28430306568953,1
110.990990990991,288.2347279630505,159.73729012127245,1
62.46887159533075,118.42894306384576,78.12592716198027,1
58.02752293577981,162.0280890334862,109.3540962263436,1
62.77830508474577,88.8229448784357,57.03539450441364,1
51.80351602895552,161.03991136334673,139.48496858879133,1
62.05660377358492,179.39613783257258,134.51432064892717,1
70.61067503924647,137.4666338455441,101.07301668519771,1
117.5020920502092,234.2543397456462,175.89704059611384,1
95.08045977011496,309.4777562862669,183.60920307218268,1
71.56006240249609,92.4085891930932,77.48438571416551,1
74.04878048780489,162.2824151688302,113.5289060580638,1
65.70848056537102,122.58731027994568,120.905560877206,1
53.430994602929864,154.53201177684195,123.55800444077124,1
67.06867671691793,156.26707156294268,99.61372540231922,1
66.12846715328469,137.1095040905592,130.3263802173487,1
117.00818553888128,32.55946525881084,19.292150453863627,1
76.35814889336015,168.24043259823802,132.900399580506,1
82.05405405405405,101.16787492501274,74.20942037754382,1
77.84615384615384,160.55411866869488,116.00394148298906,1
114.9248366013072,61.153202548644586,131.1402998304704,1
65.12775330396477,162.3889982255447,121.5230507852474,1
66.609900990099,100.68544354702844,82.37899926575056,1
92.46376811594205,101.22374849428503,73.26608976857669,1
84.33333333333334,335.7191755210559,167.69330779127608,1
56.049230769230775,92.00749601784896,94.03229528076544,1
71.54752553024352,154.13776766451224,82.93857349463472,1
70.4157002676182,130.1819689529746,90.86726255530203,1
77.57894736842104,154.3119425266682,110.37316941947356,1
63.63835877862595,124.62472205134688,86.71193025970216,1
74.38475499092559,208.49017242308517,144.0301434782473,1
75.60989010989012,291.02152336542815,133.10954892063438,1
39.917355371900825,195.94443606453592,158.23983733111697,1
44.91124260355029,265.1464004940462,133.9992846913425,1
49.126213592233015,178.47453470545543,146.24505928853756,1
67.0527797325827,85.58518727171516,68.27052286741835,1
74.04878048780489,343.0623601130839,179.11600141797737,1
63.1383344803854,106.97157821876084,89.51029666511131,1
71.58048780487805,163.53153474639092,115.29663885815238,1
53.64360902255639,172.69411430781693,118.22764625878372,1
63.14681892332789,144.36841591779591,110.1283091890668,1
87.09836065573771,216.49112944868224,145.39122743742217,1
87.44491169049621,125.17064928348448,87.87333986850405,1
66.0,131.558409599042,108.9648122694879,1
64.44125560538119,187.39530219181256,130.18477651042696,1
71.81935483870969,122.68841323344444,86.4559366192911,1
73.13513513513514,131.09188894685377,115.08084822436444,1
54.25227750525579,111.65285111962274,114.90082494456634,1
69.54980079681275,98.18560286345291,95.15633751439854,1
62.11764705882353,146.5072451345394,113.50202576739274,1
69.85056294779938,180.32943206524445,129.2481119779241,1
70.88079470198677,210.71293255182485,152.1360375047584,1
85.2808988764045,381.683950905691,187.7366337871607,1
73.43007915567283,87.49384830505397,66.1625542880857,1
74.48921933085502,100.89608539276452,96.76034140885112,1
77.36591989137816,109.71912499166103,86.21275308514487,1
74.27124463519314,57.487596233472296,61.952735161755925,1
71.35135135135137,78.72131355093363,99.98808690307006,1
50.224172856178264,215.13380491183048,168.31299047119293,1
58.90710382513662,129.82533934288975,108.26997921295282,1
70.96200485044464,104.62717315511198,83.83731021988771,1
64.79776951672862,108.87694131610084,91.1766652088716,1
87.25212464589235,95.85788097270616,69.994458012552,1
58.06329113924051,262.40186277047815,169.3399851686829,1
79.48387096774194,96.751067699684,76.54009892289794,1
82.8,181.5602225747961,186.72474045150997,1
107.04060913705584,211.09293209783485,146.8324466915996,1
68.83435582822086,97.35929773501984,76.75240692196431,1
70.40816326530613,93.2959437710802,73.37740006875757,1
73.29741077676698,95.84957430334606,72.19553304319481,1
63.138053097345136,141.27324901708707,111.78288553234046,1
81.47957992998835,218.8423452807451,171.37112975671715,1
66.19849624060151,214.34228092951128,135.7081525189492,1
70.95911602209945,129.95780772803406,105.29637801649883,1
84.9655172413793,88.63476747377909,69.38866971806009,1
62.19661016949153,113.8312183405724,96.06560380358653,1
65.27400000000002,199.13400030534353,122.67130431439094,1
75.24429967426711,161.74835742026482,105.379027403121,1
73.0418410041841,105.9789067427489,92.4806602307868,1
64.67079783113866,74.36714514714146,56.83236484302565,1
65.46216530849826,129.45080788826178,95.88241973757695,1
88.95723930982747,114.51423434122336,79.48997896436695,1
60.528856243441766,136.92101245603772,121.10935194563754,1
91.25806451612904,66.65859777835121,49.19445029277191,1
82.58300238284352,113.13131288644216,80.61560731464225,1
135.48101265822788,75.62779162794753,54.351264401565864,1
104.3625,181.1294741089265,145.66312602020218,1
69.47046560111188,99.9494317111088,89.3117248578478,1
63.22536181943489,123.1084229044885,91.60748247603156,1
68.70721357850071,123.19268339509564,128.97410016667203,1
58.628392484342385,88.9693966594684,103.06375041292456,1
109.02762430939224,325.9372036061392,135.56398181579783,1
79.0625,158.57261260926438,146.00832396516302,1
51.7,206.95076742145284,133.62216467035176,1
67.64485981308411,106.08363018028696,98.04473611058398,1
53.600266489007325,155.3229318585314,129.1147803361994,1
88.61111111111113,207.21161932081208,152.59046159785777,1
60.01078167115905,96.3806735916245,94.43382735849458,1
67.10515740120563,187.32650411370457,125.70223624304484,1
64.02607361963192,147.89159631517555,124.6892153462958,1
70.20987654320987,156.64127160872135,113.3913439775952,1
96.17142857142858,185.93132883410945,145.87147079018956,1
75.79472954230235,184.5120365502097,122.35459718915,1
70.75675675675677,168.75979653086202,114.85073761468452,1
60.63330727130571,141.25662347006212,113.20552921966583,1
72.77085330776606,92.9764361759017,89.08989200874205,1
72.975,106.59863724082608,70.41556080133334,1
70.7797619047619,152.9405371046627,117.2545626637516,1
86.25000000000001,158.102766798419,77.45422111567363,1
68.15755627009648,187.95815210502755,145.44442921042352,1
60.57315598548973,52.43675557874157,70.12711063985843,1
100.9196675900277,212.02206454444297,141.12533999264826,1
79.21028037383178,136.64468318859792,87.61289937224691,1
69.47368421052632,179.60151540180954,136.6725011678519,1
78.30508474576271,81.5568927207435,68.55591188452365,1
72.03163444639719,79.47075707629266,77.14426658618295,1
106.03676470588236,206.75993360856344,126.33431621126672,1
39.27692307692307,40.08636781321028,41.318405311000355,1
121.34963325183374,128.30269982032496,101.77021467684222,1
60.41151566469094,131.38223678636132,102.36396639275378,1
85.02613890963406,82.90979036918193,64.76855439573004,1
38.333333333333336,153.57536580301976,102.2878994848041,1
60.190325138778746,115.612179017024,83.76836046466785,1
74.16694630872485,136.93851001231133,107.0593724209766,1
61.01886792452831,125.3513612407612,74.9958550330528,1
63.60335195530727,52.191722669843905,55.648780189572825,1
38.675159235668794,122.67830668758664,93.2211574313894,1
57.53352769679301,38.903200958556354,42.56612952265124,1
83.8159509202454,79.0513833992095,95.8165315295188,1
51.48120989917508,119.21288166778834,110.8936162577586,1
40.34551495016611,158.102766798419,65.35946914685255,1
62.69720101781171,134.96499799238003,110.1715521999703,1
83.70491803278689,97.05135399918596,65.40869357906905,1
57.34214390602056,147.77503760566975,123.05370376548584,1
82.29007633587787,260.94341008677645,180.61203049634085,1
62.6697247706422,114.53060359142296,97.90732020029844,1
81.64563106796116,132.97737349761843,91.02099403417378,1
64.69646569646571,88.10550642355241,88.20845837229635,1
99.5409836065574,71.84328579841488,55.18619994795092,1
86.74496644295301,72.52436696089788,52.45929443235536,1
39.29427792915531,133.0104088098446,101.5518639272638,1
56.049230769230775,119.6699744702565,69.32663102717122,1
55.04835164835164,143.352693634859,113.90579401575027,1
57.37335834896811,164.2961688079798,148.01579499706187,1
66.47826086956523,143.07821844938314,142.89051326072757,1
81.1154144074361,134.87277727919164,95.0814289233551,1
78.37500000000001,253.67267018576405,137.24768031235033,1
71.17335473515249,129.3796391973646,92.816584053454,1
113.54146341463417,195.7026784942939,138.4892758325449,1
86.17467248908297,347.2116983690234,187.671624956047,1
62.330196749358414,137.77411112990814,119.5310721541594,1
111.07317073170732,101.54334054280736,135.13445486121827,1
113.04255319148936,196.30651417327195,128.26444598080798,1
52.76344936708861,100.757051784078,146.2137055503074,1
71.83578947368422,56.12969053075528,51.715987936883224,1
54.21428571428571,128.77968126815065,104.57515063496405,1
118.4780487804878,162.9686018030696,130.5086851963665,1
38.79219905850706,94.61207061418452,120.01453539499543,1
65.04555314533623,132.63115178237035,89.08837874923712,1
52.64739884393064,228.58170715279937,158.37701291398295,1
56.435193133047214,157.84329601245312,104.27504359744378,1
58.81256544502619,292.0970096938311,171.6348234463311,1
49.5336505778382,257.3462645106021,166.62036140636627,1
67.39178690344063,94.4463687832856,79.53778226324401,1
64.9246435845214,59.03462401625905,50.99272420155869,1
70.2777777777778,130.97022591466066,87.11969794145446,1
48.59290187891441,165.347831330845,109.70559339252696,1
48.867924528301906,172.7352063405993,161.18140968755569,1
76.41632653061225,113.66114711169804,130.66027006875893,1
65.813383600377,165.59628801693876,125.10044284140692,1
85.05237515225338,155.97094654921665,143.4542781712651,1
89.83333333333334,303.9551300409542,189.30480150929552,1
70.78756476683935,131.47992696069213,90.85709646718136,1
65.64324324324323,142.5119081211064,169.35905633401785,1
69.3693693693694,83.89175406607093,63.543531546623726,1
80.02049180327869,108.55068688741676,85.40092946312811,1
62.46887159533073,171.656214854593,119.34420145257042,1
65.79230210602762,102.15595232458983,81.19088390823437,1
64.08214585079632,112.43380021321876,78.87801015619453,1
65.81734317343174,148.5052023113955,99.00639241619,1
76.10026385224273,261.0641267514409,155.20205911041808,1
71.20075046904316,126.40358677210102,78.03296556049368,1
39.428571428571416,179.6009280109333,157.6905033410517,1
92.9387755102041,340.0128564048469,179.2025099965144,1
68.58823529411767,120.68960655885276,93.78970762580184,1
62.85445205479455,138.1071703809936,122.2377521393364,1
69.14967462039046,86.89661369086241,82.70872404562327,1
74.08722741433021,83.6134221395501,88.14575829285259,1
70.0,123.20562312344336,134.96499799238006,1
49.002869440459115,181.9490686752791,132.4065151424595,1
60.457142857142856,261.3103147956798,174.487844824142,1
92.99459459459456,41.48682040702362,30.64735253769837,1
61.247496423462096,114.58413003350132,75.2502686648162,1
80.62827225130891,211.61260697143285,217.938175651122,1
62.92227979274612,221.24974471339473,148.46817392605453,1
72.52388797364085,58.499041098889755,90.44928457427864,1
39.34341252699784,103.89387204312584,79.2569790218443,1
60.48093587521666,161.34235212548788,130.27188817203262,1
93.22605363984675,101.32783463848854,64.67965008353116,1
59.53628318584072,164.77425928295636,105.41936040754292,1
58.329896907216494,48.94380927801507,41.39768736832911,1
92.59701492537312,120.0450465830126,86.39346783027966,1
77.30898876404493,90.82603987304296,73.81042395775907,1
73.61784675072745,112.64441585356474,76.59830227198266,1
89.29411764705881,273.08029318643725,189.82140822116497,1
38.74774774774775,191.278845680026,186.74289120627785,1
60.938405797101474,192.87383118854487,143.6512985911235,1
89.22222222222221,83.84665389563803,63.259090614261304,1
79.13484021823851,110.442297837889,80.93324920289169,1
94.43902439024389,104.56072210162854,84.98630049951262,1
77.66591928251123,88.56972338290626,64.79060083307502,1
74.98185483870968,149.2397700147965,111.08905487987715,1
54.69593495934959,163.29200194120932,109.7082417362396,1
78.23830409356727,90.011943659991,70.7233282088842,1
77.13081081081081,79.80787320405405,52.27573885432698,1
38.6216814159292,227.780927998075,268.9451817767951,1
65.55770662695458,103.07039375814462,84.90071245921368,1
57.76460176991149,181.90188475210812,151.37001412157338,1
107.06297229219145,210.91688331155353,183.8972200909266,1
89.57142857142857,169.9199615011979,162.02303051937483,1
111.29938900203663,255.0444487792363,175.57021225315054,1
59.921052631578945,62.49560593218135,204.95848730044855,1
81.39082058414466,116.79413086573857,84.97549265205797,1
107.37073170731706,243.05086711954235,170.4729138749306,1
68.13024850042845,88.34253520689549,103.36929650308127,1
80.62637362637362,158.10276679841903,110.86111166778116,1
70.91211401425178,135.43385107693692,90.34332297042825,1
63.25000000000002,117.47400856473652,95.62978322674051,1
77.25918944392082,131.7379839841649,88.43364442236947,1
82.68456375838927,204.9035489164251,156.11568993137337,1
73.98947368421057,64.9286239228054,61.25778956213113,1
77.26383763837639,165.63807322585598,123.6503990852721,1
56.924795234549514,167.78875324363705,121.3337992424144,1
46.872093023255815,90.85025692183302,76.71295342761795,1
64.91479820627805,164.80055207558246,131.00688321727603,1
69.91817087845969,158.87315571423713,132.36273524085135,1
72.40896358543418,110.36700235153884,73.84222924681042,1
75.66355140186916,248.88359456873067,156.21948373282984,1
114.75918367346942,94.95772710749888,73.70856184024987,1
51.73749093546047,176.66380420474098,123.72869944866828,1
60.18691588785049,96.04447767609626,92.83215588633242,1
69.5111111111111,148.1279079380336,97.19914561291638,1
112.23952095808384,137.15931680940173,167.03704386235276,1
53.885714285714286,225.09675788596817,139.64962084050376,1
120.43636363636362,206.68886173011583,136.14377248969572,1
75.65952732644017,94.42677222263544,70.63352739774352,1
68.47148936170213,70.8466017374732,49.60336832967674,1
75.84730538922156,286.29105123179744,166.35461655315578,1
71.92207792207792,112.112040431615,140.51752731285362,1
73.40307971014494,165.4999910870605,117.53525821331642,1
96.40449438202252,147.43549035135973,102.31838264990505,1
134.04549950544015,166.16410000354662,113.28498319687571,1
64.29864575908768,118.19869810068116,77.8374548824128,1
64.28688524590162,143.96614892909338,103.44981361491352,1
73.55047106325706,54.70408504832488,31.80225814220518,1
50.30409356725147,126.44103413976366,99.38019192356433,1
83.4,124.29525753932523,105.23644397330442,1
105.67252747252748,230.3989218092964,132.69991926682167,1
87.80205655526991,234.32788514217717,178.25502138509464,1
66.99915895710683,119.01613355823052,95.76379140281544,1
81.00696055684455,186.09284442457883,142.37714505728115,1
60.0861204013378,116.15636937621264,95.37133920683723,1
114.67992047713716,32.83882115228534,20.479771757329363,1
72.98076923076924,101.16585469886456,81.66710870770673,1
64.46037099494097,118.46487841598427,94.51868180923226,1
59.367765567765574,167.04091553009363,131.7916507274455,1
83.25765306122449,226.0129017753691,178.77477180187446,1
54.45,154.5453335043573,128.52208028758685,1
86.23054114158637,132.24129222803808,95.90759551780444,1
65.20422004521477,79.60874435607803,58.65149560721307,1
106.37080291970804,245.34412798660065,193.42357784167237,1
67.95203836930455,121.00639956102088,94.8607147851586,1
71.45004128819158,89.4158778099484,92.85274941416264,1
74.25000000000001,153.30581720906156,139.27714611490015,1
74.21848739495799,116.5840411363844,74.58009680453728,1
59.066147859922175,165.90269138466732,160.8457703507969,1
59.51650038372984,80.45660389658177,85.60081452978616,1
53.806659505907625,81.7713868204632,63.62738045415461,1
63.80680061823803,113.92544949771974,90.92648685192675,1
73.15619967793883,120.5189536618183,87.68580764797446,1
79.80140186915887,41.92332694781903,45.2498792178876,1
65.22156697556868,102.9018402622748,82.86486184374897,1
113.328094302554,201.3931483656396,124.17924778354826,1
71.73475609756099,119.49807592645234,80.06287357612955,1
67.8103448275862,96.817776394592,71.68905337116752,1
86.5437636761488,186.7886613917887,159.38029650283073,1
47.864864864864856,39.52569169960475,40.7176880346018,1
102.7218045112782,283.3322653018363,143.65768321296554,1
70.06153846153848,76.54117284994892,57.36375215498673,1
61.03846153846154,108.8912619322046,121.57763296665402,1
93.22062168309324,87.67222534711001,65.20949985489213,1
58.29310344827586,179.58955690528316,119.77006916003882,1
93.15315315315316,91.480203377845,67.86384832823533,1
90.5606060606061,90.826039873043,64.29059527812143,1
66.36049601417183,89.3274322531583,90.72536047115914,1
81.63157894736841,38.6847195357833,59.93010980591746,1
62.399103139013455,155.85867664332503,139.19545434931788,1
69.55781250000001,144.02146938134794,103.28930643814772,1
57.391304347826086,85.81978629910027,93.09538113291602,1
111.20879120879124,142.51190812110633,103.27859786920096,1
59.66712141882674,214.03479021489048,124.49273016305796,1
61.12977099236642,115.11102533270024,92.337365652371,1
63.57303370786517,87.84485111179258,108.75308402755132,1
99.5409836065574,115.23620345544064,178.68716719392413,1
60.09756097560976,107.94718580058688,67.86801627913574,1
81.05263157894737,237.6304002386011,156.49215928719033,1
72.43993231810491,93.25130555176004,72.91717951599679,1
115.15862068965517,251.10163429192184,164.63179088208526,1
68.91298865069356,220.99375741870432,147.740726011255,1
57.88482490272373,154.3246425754553,125.82138262909947,1
58.06329113924051,146.3774655837898,94.06493841841144,1
66.70433145009419,121.81167429244272,96.06401047153804,1
73.99721448467969,94.82093118615208,65.42178817825064,1
60.4124457308249,106.00188984348024,78.34921549928193,1
50.4969450101833,163.56665372773566,91.53930466128617,1
120.76203768318211,49.123976965853565,31.398437275274777,1
89.66168371361134,126.06588746499362,93.99619665077483,1
70.49535603715171,102.94742247503618,68.00257128096935,1
79.1140443505808,177.0807821533864,133.46004385838918,1
81.09863013698629,77.90287610409824,57.2772723257111,1
76.84579439252337,85.75250303803254,57.60486388709049,1
62.11192930780561,196.49179581591304,143.6129319481564,1
56.421238938053115,79.84856037121612,80.36251473822394,1
63.67307692307694,90.83770566768676,67.87672896524812,1
68.00593031875464,162.3144677310172,107.10600107384464,1
61.69565217391306,130.44611216750894,95.35808416654048,1
69.29133858267717,189.87261710666817,158.85584277028246,1
50.95269382391591,219.73178784116735,179.14993440193487,1
70.57115749525616,177.28957058202775,134.83795056588235,1
67.20590302178499,69.94090457834311,74.74131432002223,1
59.23076923076924,101.22374849428498,91.37173558097584,1
114.43736730360936,244.99544779108413,164.86231911547395,1
76.32064297800339,115.76994155092,86.38717947894959,1
87.03843255463454,134.96499799238006,95.85225038848604,1
111.4915254237288,80.64394532780533,63.04786060604353,1
69.2916314454776,128.73910156609756,113.66096581645805,1
59.45208568207442,203.1479089640497,143.02199183439362,1
62.597938144329895,225.9081449207147,138.926855790271,1
57.30991412958628,64.48440919317684,51.02620626732116,1
109.4372093023256,180.1685682632061,180.63966082799783,1
78.07494489346071,108.10135162862495,84.13515283281257,1
71.85421089879691,97.99424172749404,83.41937413900705,1
69.3754080522307,80.17273562642053,133.39900201512776,1
83.34813084112149,97.0416328238224,66.20753317892381,1
60.35526315789474,188.43533226907445,140.47528836788325,1
50.49694501018329,174.4474660983578,120.42023264025296,1
55.331220285261494,188.37749652865364,143.1425634848517,1
65.90119760479043,114.75099623321046,103.00909705705976,1
67.41672834937083,82.81392239681949,51.27771977712479,1
70.65444287729196,148.98791670485693,105.75513261297937,1
50.42847457627119,176.94830063983258,118.77719607214186,1
64.30551989730424,51.75127831683619,87.5422048849999,1
73.21711568938194,88.24163251359094,76.60136157433054,1
85.0810055865922,125.31392624842762,91.84708540825184,1
39.645360824742255,70.286440122192,59.39792608807671,1
89.41099476439793,232.32362064098248,164.02794602799727,1
67.0094936708861,119.42580621915276,94.41439668408673,1
75.40986394557824,233.42695492295056,180.8265416467339,1
74.78301158301161,183.71760374240384,117.91220189866002,1
77.74576271186439,98.42980342244871,79.92283749650471,1
63.61988304093568,136.30285574392977,107.3461236368635,1
40.390243902439025,93.43655567268134,79.8026445295502,1
61.41286307053944,52.64776953222639,78.5168498966112,1
61.824,128.35480488316028,92.97232821611368,1
47.27551803530315,147.11155299925818,111.86890790222712,1
81.9375,178.96018059560112,177.39967218912287,1
70.88725817211476,81.17109935466256,47.47450329951413,1
70.86486486486486,164.98402928098224,131.91461504046342,1
70.89480968858132,113.13828575543616,87.4113987694669,1
73.00992282249176,114.4974961646608,80.0732748847564,1
64.33363390441839,142.22312989504647,141.37840147728346,1
63.81215469613259,201.85467727668703,155.7575516941813,1
85.52112676056339,241.07431908263888,165.64283215652384,1
49.162011173184354,158.3289846131275,121.7766211328983,1
84.07384615384615,294.4597712599079,172.5262220062834,1
53.46130952380955,149.3456823151638,112.96344646051897,1
62.77443609022557,215.84067891661735,138.17883112939123,1
97.41176470588236,81.82595565324357,81.41770154353279,1
39.70623742454728,103.9837689813288,101.44922473896584,1
82.72727272727275,117.83164906196107,83.52269716714675,1
70.02081598667777,109.68286351372414,85.56987797456657,1
78.97109826589595,56.69068502771829,35.243570747016044,1
76.375,126.91130485714235,104.88824567801316,1
67.21745908028059,138.69843636553105,98.86018456761916,1
95.72972972972973,200.57097954727703,110.64888730810516,1
48.61697247706423,164.24853609533162,111.99026371624502,1
73.91424418604652,91.41640839134872,74.91021971258321,1
69.688622754491,209.7718488549494,135.4027537624486,1
39.13066666666667,161.11451869251164,151.62528537738456,1
70.09234828496044,106.28493945240824,151.15828690459293,1
72.6208981001727,67.96798460047916,76.46549097988037,1
88.89534883720931,251.87923928132705,178.27835225533886,1
69.39312657166808,143.0688511431646,108.2928569877326,1
40.15873015873016,73.14114093075591,117.93539912413485,1
70.51833740831297,22.82016874267296,81.47766185798268,1
60.82578397212544,51.91274915637829,64.87226701555896,1
58.854425749817125,71.42354963677874,61.11656722663251,1
69.70408163265306,135.04785974724993,97.01678539470583,1
62.003244120032434,148.36885647283435,126.454552556313,1
70.42268041237112,49.450058669661985,56.24175878289722,1
71.8193548387097,149.20621413578556,88.61920557052477,1
77.23157894736843,49.50389652847032,52.18533383965285,1
94.15562913907284,236.71084883692387,187.0378342975372,1
65.01675977653633,89.84309418304251,85.33912368403598,1
55.62076749435666,179.04726617181478,112.7954741244749,1
78.46520874751492,130.68498091209725,74.70758513411744,1
80.592,112.39284752611688,85.80538882799401,1
47.672243346007605,167.6080175625734,147.6922970802048,1
65.49328214971209,177.99775892984118,115.10446878180512,1
72.08079376328844,106.99806238986028,79.31070586161913,1
54.49912434325744,239.88328664075263,143.3280057074775,1
58.1764705882353,126.05801253416892,121.39733819131428,1
66.47826086956522,118.14519896201185,113.27997433413192,1
61.71416803953872,146.12677612838655,121.85986689568948,1
55.87707641196013,185.34082325914883,121.8409990458748,1
57.20592193808882,264.32678060262026,191.45704145364368,1
93.1624548736462,184.04640042002015,178.71080074936648,1
62.5304347826087,157.49227352969584,113.37331902170672,1
72.32876712328768,316.95665626253265,196.5760957238152,1
68.70769230769233,121.29534272636204,91.2382992190756,1
77.84615384615384,134.6701027562472,87.99134838486982,1
70.74174757281554,190.0035319873728,114.08895758971008,1
139.26605504587155,46.689677724791935,28.593589478538465,1
68.02816901408451,223.05295093896297,132.5383237972978,1
68.26446280991736,108.9390070783686,91.09570726599198,1
71.33223413025556,94.19433660858778,61.39135976393136,1
60.97229916897507,96.67359496478788,84.86514965821507,1
77.8123370981755,115.98693584755604,91.87041603222316,1
83.76569037656904,125.80208733091246,82.20752452024946,1
63.17948717948718,115.69645552109384,105.694161108169,1
67.61823104693141,178.3934819749621,120.96714729487884,1
75.9,260.18995597011195,105.4018445322793,1
77.41799999999999,82.70015718827518,74.69940795177239,1
64.5042492917847,49.83598197281543,57.4899189177113,1
53.98900235663787,132.9218440236266,103.7189199235933,1
77.2670321064996,99.38203581454032,77.64971055005115,1
36.5255052935515,87.9157337595816,160.09808114089267,1
111.90384615384616,149.467750207028,137.82393989182626,1
89.55752212389379,85.38525294345013,170.2245397837854,1
75.87831407205982,113.12031255734207,90.15831178217714,1
108.2251407129456,126.23493614759929,91.79874293206991,1
62.80565897244976,105.53961304978358,80.99584144965024,1
66.15980629539952,122.46587655991831,131.40416601121814,1
71.26760563380282,75.935726623296,53.66379935287561,1
41.21266968325792,155.03251789579767,119.4885187563706,1
66.0377358490566,141.21086407969003,98.08281960037132,1
69.16260801256874,271.0832497174289,163.368493923029,1
66.0,132.70704500624782,94.88398835053373,1
72.3004694835681,218.58563213864775,141.82032251845166,1
71.2197962154294,133.65116833951393,112.70548020381084,1
54.941018766756024,139.26901077848825,94.79340988178642,1
54.702702702702695,139.81606860022728,104.27763893499728,1
92.10604453870629,191.3818739801011,152.7883394499333,1
67.12756264236901,158.16791099598103,113.81190661511936,1
61.73684210526315,137.66313720039895,100.59664102666328,1
95.36600411240578,81.93408808675973,58.306131121727965,1
67.43608340888487,95.6297832267405,81.09107275542269,1
68.02754237288137,106.14520982952698,111.83745123755958,1
73.25570032573289,156.56561968934673,96.1466663231769,1
77.43087557603688,121.90926068214084,90.01525992229551,1
51.05147563486617,172.57163237720337,95.4164593538517,1
66.32770605759683,103.9508157974934,63.742125312996,1
72.37187127532778,178.83175561989685,118.07783573124426,1
50.64888888888891,133.59475947877812,111.47894925545282,1
67.4111842105263,41.38235812957185,30.179370704272102,1
80.74468085106382,125.96392079033558,89.78511218656557,1
99.46511627906978,81.16694745805687,63.33948785576694,1
71.11627906976742,143.5716217558553,100.60318418399314,1
66.88948787061994,242.90976486140823,172.58043689306504,1
60.6098003629764,204.57924406026137,134.29076062431807,1
64.90758620689655,123.84015902576914,87.62474311514295,1
65.09941520467835,114.66992875842698,94.88139365081494,1
68.18669690098261,115.32121915865112,84.00914160937968,1
59.06614785992218,158.9596986402774,115.97945257803326,1
64.33420365535248,203.07137365080376,150.77096734013497,1
103.65384615384616,365.07138000381747,206.61274055588777,1
73.83050847457628,124.8903718222398,91.0544718793667,1
74.96062992125987,95.18581307966912,75.72351704802765,1
57.403361344537814,54.89051974936071,83.55861919385352,1
73.17000742390498,86.5367857088711,64.39987189149987,1
75.79638439581353,138.62734988861405,96.24242129977124,1
83.97936624907886,91.67220247406829,63.17348158067242,1
75.59778305621539,148.8520310465203,105.25154894836255,1
65.11029411764709,154.42794661890457,102.83037974551908,1
61.669980119284304,176.25388529720573,133.3220466947056,1
59.578086672117735,151.8625466135465,128.58248382964297,1
74.23353293413173,76.66257050410805,58.16812576371685,1
60.40484429065744,118.5770750988143,101.81346103178296,1
72.89176829268294,126.8835329456873,77.31953323547974,1
62.496208017334794,176.29015545735925,156.77303687962953,1
65.36842105263159,131.94038899545933,121.0082747425175,1
58.277879341864725,149.90931025382852,122.8759551586634,1
49.51312649164679,162.16776844652404,108.19618506968632,1
61.17525773195876,64.54518426306133,91.5148705921768,1
103.10115606936417,38.54959803939496,50.72393860903278,1
92.17375886524825,91.04256820501897,69.23402283482768,1
81.36407300672433,115.60566741354708,76.07777693034537,1
57.70175438596491,207.02308168135932,151.1477859835522,1
121.97502014504433,80.27498185134733,54.45246371706412,1
61.030383091149254,190.4269908911062,122.2504997349476,1
58.78025169409487,71.4169846705774,54.40169805731546,1
60.77402135231315,77.30279531860847,80.99880111303297,1
52.89513513513514,199.79611502789655,121.48955424964367,1
62.33615384615385,61.648686891361834,68.86141603614995,1
73.50315789473687,65.90827970746057,52.26639053358153,1
142.87058823529412,139.7444231593968,81.33437565787715,1
69.5579514824798,129.0903685261227,97.51321541739487,1
64.27664079040227,135.5369378050184,123.75427514522008,1
70.62916666666666,116.25872751687828,78.27270740662843,1
97.1890243902439,217.0059723385165,169.4480961648903,1
73.02681388012618,108.17994145991352,86.21549862492007,1
128.7815631262525,32.84383279995321,19.609702781766345,1
102.59586206896552,156.89636943293,110.06517077819268,1
96.68789808917198,189.5585582337043,111.86538891766725,1
90.52249637155298,62.56792741924412,49.54538444182045,1
67.68152866242039,100.9260500774996,81.77723522281329,1
50.52981969486824,200.44394207255775,130.58399990082322,1
62.22374039282665,97.96358877977114,110.25341511733866,1
65.25423728813563,121.86969221462626,90.56775182829028,1
58.05783582089551,167.41075778805745,134.5519816629164,1
75.5249042145594,94.45294536001798,70.10862350638733,1
81.9375,125.82172739197178,107.9553213674152,1
75.08823529411764,69.54601795510669,44.20074963268282,1
54.50192678227359,135.38673071565478,161.91083479374203,1
62.90625,137.8685740214516,99.55027104054236,1
56.45538461538462,208.61449421335632,134.71111788126868,1
112.083984375,276.4995748511243,156.17336901950202,1
75.7932489451477,135.5530814355932,99.87140046357102,1
67.0028943560058,137.01933994623724,100.1683274410681,1
69.3585196607556,184.09642571560704,133.17697019902215,1
82.25903151421984,89.51846975459388,75.17285589843742,1
59.45386064030132,165.29768910854352,120.10290522351076,1
99.71739130434784,194.8942370928887,160.46885737587044,1
52.46960667461263,60.72051974599693,91.63274533990246,1
76.93081761006289,78.34036064467205,52.2962249565712,1
56.562052505966605,129.9020540617476,84.27173726243967,1
61.17884130982368,170.5525472711021,120.39024635386568,1
57.265210608424354,95.68088994636426,78.32281723296991,1
71.41498216409036,132.0168890214451,98.1667811911149,1
71.4308176100629,118.79153882261684,98.94777541857115,1
60.94160583941606,174.91328125628132,140.4586438066264,1
66.36724960254372,72.45178964357056,54.38040794076208,1
67.43728222996516,137.0477325317085,105.12224084659228,1
74.58536585365854,99.46730037124844,71.17733347501786,1
79.65517241379311,94.3412081327834,70.66962325087302,1
70.19612068965516,115.19129044037288,78.19834310321865,1
61.54054054054054,63.02900626708444,66.62476951036275,1
49.91991017964072,155.88595743236638,122.1596844737135,1
55.877300613496935,128.81185607971278,92.46158661145056,1
114.27854454203262,125.8405390430288,83.25192480339021,1
68.11538461538461,44.19106674900765,113.21252205400012,1
56.43996901626645,240.35154438808692,150.12817879258145,1
90.25945945945944,141.72671256929567,107.67749955998345,1
57.0840197693575,173.54991454912994,127.1106545289608,1
79.29850746268659,194.97560720617577,168.26272643423306,1
90.5625,254.11464455844413,195.5108691687994,1
78.2192448233861,158.6425274244234,138.92455822454156,1
38.15232292460015,162.9686018030696,109.12005724211642,1
58.26666666666666,38.88295469074818,55.85904548407553,1
96.8936170212766,39.52569169960464,122.1820618642385,1
56.98906644238858,162.00238788841176,119.07294476940832,1
96.65271966527196,84.65338343428371,62.4997891715115,1
85.00741289844328,91.85216372698964,72.92086912830595,1
65.1437125748503,108.4576032521795,116.42340029075253,1
66.48175182481752,206.64541688218864,122.71367595650298,1
64.23608017817372,146.6111254926645,132.78113914901562,1
73.16037735849058,98.20468221616903,78.13930319815921,1
63.1039260969977,127.95075493778022,116.21535900218922,1
60.483383685800625,115.35334923547248,103.77596219688782,1
59.6906906906907,140.55732782587287,106.4017109142098,1
39.26752893124574,84.22349468828983,63.00423432871983,1
74.7089871611983,88.51594452618703,64.36700184722568,1
69.44363341443633,86.008568428961,72.08752848504658,1
115.30163934426234,204.65776026797067,160.01420542249298,1
73.70364238410598,120.0704182683166,89.70718400050534,1
68.75197699496766,101.62154104769216,83.71392837252486,1
63.60335195530726,92.17706971614928,101.40648961735894,1
67.59728944820912,117.0854801865504,108.93567267198073,1
38.92307692307693,375.84974341257873,268.8037649947716,1
64.63100436681223,181.28912991260688,144.01394278570274,1
64.33092485549135,124.09229662457452,92.63610905014936,1
65.95686274509804,100.4380427945562,82.68354373973132,1
70.20318423047765,85.81978629910029,69.44993718382302,1
73.17730496453902,89.0344753298837,61.85343373014032,1
55.787234042553195,81.86993628294604,56.013779978515736,1
77.61421319796955,447.4200490905708,191.48001933952935,1
70.01144726083402,128.00135851118446,90.45494942084476,1
70.64905660377359,223.0914315656511,122.47333103699611,1
61.60000000000001,167.52509237627785,134.73048000809368,1
88.3389355742297,140.9446835454182,96.17751141898783,1
79.71090047393366,150.52663644321277,125.23534734275827,1
61.12905718701701,108.6869692108785,97.79370846618454,1
88.99180327868855,251.8966436533804,170.75258692097586,1
45.375000000000014,319.1561934891123,242.98943676172064,1
55.7851590106007,123.9666764545463,111.88594307652532,1
57.54907749077492,122.49759859386404,93.33380357546064,1
63.75255391600455,105.07194749605738,124.93641919195665,1
76.29573170731709,45.71989823676377,31.23791621369523,1
63.95539033457249,151.10700686882552,134.99759674882463,1
76.04081632653063,88.78296155663556,70.52665478229194,1
63.11850311850312,87.52264338508483,72.31689511277465,1
103.78438661710037,272.1711272624814,167.37182439232782,1
58.18118466898955,128.48000875446658,99.50109170720222,1
74.95098039215688,227.8508989954395,177.41249792738753,1
70.06153846153846,167.69330779127606,162.4351515933854,1
77.11764705882352,105.50472581058608,130.81098333482413,1
59.2670025188917,91.7754248002659,113.88454761373252,1
103.4106280193237,236.84533503814936,164.61231647230895,1
79.53592814371257,50.318699582866934,33.23306373701223,1
72.81918819188193,49.13688225360167,42.72869967332076,1
62.37974683544304,163.83021070099022,113.63346471255964,1
61.05,91.28067497069182,77.52078861885157,1
39.32106339468302,81.419502242458,57.73534048836247,1
113.22463139635734,63.22185426368187,39.69899820448928,1
77.06428049671294,132.37066958453056,89.03977383697637,1
61.54529307282418,106.87688356632624,78.99217127589293,1
55.223804679552394,172.67030592357094,133.16647013499002,1
79.05056603773585,159.60967448242226,101.73930583396148,1
69.68260869565216,98.56275487722856,74.16313949262434,1
90.25945945945948,207.4193724634909,201.41410646412533,1
47.67911714770798,155.38446504088864,131.09624148396492,1
71.00000000000003,148.1704575278065,98.11758254626548,1
56.736842105263165,94.55983154498648,94.32594971835752,1
51.93157894736842,133.8666279514976,103.0165664098353,1
60.31666666666666,90.72370908749384,49.42952147001472,1
58.77053824362606,138.46819164928272,129.4546251352127,1
88.2171052631579,162.18946458260965,129.2482456910429,1
71.71653543307087,71.95723239784975,88.3470542612702,1
64.95238095238095,70.88959711364751,106.54068441156178,1
65.9544827586207,74.79285669291069,97.96157974418382,1
86.97366440933034,254.03072435393904,152.664838841312,1
66.07605877268799,179.02803909562158,119.28591073269752,1
83.34117647058824,152.4225049314744,79.77073151809088,1
60.82352941176471,135.8022625223646,100.32843398550573,1
62.75746268656717,108.51530125996835,103.24509165439886,1
49.39674593241552,230.9560851069177,170.73215761189726,1
74.47619047619047,92.150688527695,62.872900641664536,1
65.43103448275862,69.09149197431827,63.7877124474846,1
116.52697095435686,202.18721018738876,146.02011430267515,1
55.26686884003032,172.80204139435222,126.27761589988091,1
60.22107765451664,160.6967810539368,120.19878794090396,1
75.9,232.72097144473895,147.89159631517552,1
91.30827067669172,238.5616055819041,169.9346197818166,1
70.9019908116386,97.67839577643248,57.86849883176595,1
39.49432955303535,126.9494179520895,76.36820202203106,1
69.94322789943227,138.2064717778751,92.40159813830353,1
77.89017341040463,193.71992065164025,167.6646277576678,1
38.33333333333333,65.17246026814685,52.776155598183735,1
56.98198198198199,99.16237206294404,127.8972231851806,1
79.68503937007875,145.6103552594876,152.81421677646884,1
66.39819004524887,110.20217144941978,83.18492310027055,1
77.03283582089553,92.69596363287408,156.79809625749698,1
71.11351351351351,150.13817956305292,107.37739973493646,1
116.76923076923076,260.39002516997004,159.0410703879361,1
68.91176470588236,264.73845234488266,137.90434845414865,1
76.64516129032259,95.07316905975568,58.78828954864978,1
77.75121951219514,287.44959458855635,164.38626433952982,1
49.890595009596936,156.55603928823837,113.36617542700274,1
106.19753086419752,109.02713129789927,87.61424636789943,1
78.65284974093265,223.24144263150893,154.55505767602492,1
58.601336302895334,172.7505199410317,114.25686615324508,1
71.96444444444445,76.1509859099907,59.17262631918716,1
69.7878787878788,146.70106837663846,110.87684752100908,1
66.30344827586207,110.36303797214808,72.42311290005911,1
55.82461103253183,153.28631960209736,117.56905625409124,1
78.30952380952382,214.37602233561233,198.05677405185688,1
57.92592592592593,146.66764481839266,110.8790915751843,1
74.3076923076923,188.2173251736751,135.75172535484256,1
51.88929001203369,159.51157892545214,132.9632645833423,1
88.33482542524618,120.64511940133217,83.45655683452847,1
59.635714285714286,113.3965107873002,84.87971118230483,1
67.35974643423138,95.49144283053504,99.0860985343614,1
67.75345377258236,141.41141359682467,105.30517063702597,1
70.45569620253164,108.84526773292689,91.63830760643954,1
60.17531305903401,146.15379411440435,113.2752932467383,1
50.53983353151011,192.96203578230316,132.98590966556165,1
85.70218772053634,100.51914539855098,75.04516234121985,1
67.61852861035423,98.28161499899504,67.19266391713317,1
66.15137614678899,145.94893309829115,99.17306805973742,1
72.70537010159651,166.35708484083833,109.55304900974129,1
63.02083333333336,123.32635379731433,99.61279017848496,1
92.80794701986756,110.27495956027936,87.21101114621925,1
58.853503184713375,98.34937019898192,69.48355376309314,1
75.54028436018957,106.10934236964384,62.08327687735984,1
58.04859529233106,173.86362260003514,129.34410450856072,1
70.25644916540213,157.83304337174786,101.03224126771453,1
54.175588865096366,160.35127068034367,100.4574828166837,1
80.24669603524228,179.83103819885096,154.59857315812033,1
48.76476683937824,231.25323040202397,170.00403756733712,1
57.91666666666668,150.0971275958421,106.1693859395842,1
81.40195208518189,167.22518576321136,132.31792819599698,1
81.44230769230771,184.2823907195529,160.94475946569295,1
72.76697736351531,60.61896821435456,48.545654302666094,1
61.54617205998422,113.37843586887357,98.10258115959974,1
50.82548476454294,218.5647986836408,169.13146554592217,1
86.1276595744681,238.7953749722248,123.31999974652852,1
92.0664259927798,89.58914590231728,64.39923000233165,1
85.09509875640087,83.90416343291433,77.77414034804183,1
50.04395604395605,149.34538608483302,116.45368596616396,1
67.99552071668533,132.72549575990058,139.29301832689157,1
63.544186046511626,113.52890605806378,133.64184501276185,1
110.99354838709677,87.32723648047333,57.29468277308349,1
55.1522491349481,168.53811569613472,133.40896026101524,1
66.97529069767444,159.89516312623024,109.6637732554034,1
78.43,180.62139604186888,141.1075897718416,1
76.71052631578951,168.76543228355706,136.8299632983903,1
57.82857142857144,167.69330779127606,126.15756259687456,1
79.11400651465799,227.2297605028428,169.26894775816103,1
47.16949152542373,230.72027119500112,130.35111137058612,1
63.66454352441613,128.93734194409848,93.02608678463211,1
82.95161290322581,129.48979642395898,105.82407593671684,1
61.42196531791908,60.54213363253233,75.33407150833617,1
67.94117647058825,98.78426353969677,80.37271920397822,1
73.33333333333334,105.5714267838174,74.64909524787916,1
108.06101694915252,217.69053546585383,180.70848127533907,1
73.90103750997606,129.9837381374505,96.43975872553128,1
53.025182778229095,118.57707509881423,86.9411679590097,1
58.42609949531362,122.59384710383236,113.76689073241712,1
78.61405672009865,201.68064765314497,173.25476757310074,1
72.50149253731344,60.886006659083606,58.82352223216728,1
100.43478260869566,382.7314812543214,186.3987025247704,1
63.95057034220532,119.92706440760855,83.75402441997753,1
65.62231759656652,146.24381801829884,101.49784557000048,1
81.3658536585366,100.87920265540636,75.69088946437348,1
54.25483870967742,177.83929150260624,134.36657962376393,1
63.63567073170731,167.8795302892909,113.91435803922134,1
71.29629629629632,134.65221658005012,134.25079301766834,1
105.68354430379748,363.4890330758008,193.1013847293482,1
70.65297741273099,88.78911400884878,64.12593305881273,1
93.15678627145088,112.25429673527488,83.35887275012182,1
67.92700729927006,88.6378277554321,81.12867435279121,1
61.31956912028727,151.22846222989455,101.76722605505658,1
54.26666666666667,130.51396450612464,128.4848687275773,1
63.915789473684214,79.0513833992095,51.345379671014115,1
82.35398230088497,345.2850506510866,171.4343752457554,1
87.05023547880693,101.62937174383828,80.2350231917221,1
50.96666666666666,87.74629081097939,149.94092746534574,1
69.48924731182795,82.4126315972399,62.10795277489975,1
70.57859778597786,119.00826588565172,83.88302861337985,1
68.12803738317758,120.48287429321032,89.65141811063896,1
68.86956521739131,171.12200644246008,110.90647007465827,1
61.737193763919834,143.06055623492352,87.57544729066626,1
51.94183062446536,175.084188316702,132.42212802601676,1
51.439834024896264,142.86134528186446,116.57650627103936,1
62.006051437216335,52.5068113956579,49.73001830321488,1
49.582914572864325,173.063991815324,153.63490067203568,1
90.97046413502107,175.3246753246753,201.62332860868224,1
58.0053050397878,187.97457807794865,119.24993860673533,1
59.81087470449172,198.46764893316143,164.85388458280644,1
59.27534791252486,105.5042618617708,88.49880133740912,1
77.05503931379559,128.0390394167921,92.31449349847418,1
72.24691358024691,288.06588328336153,166.76658054420338,1
71.73475609756098,85.86539873192416,86.71089193379727,1
81.18336162988115,111.1585217266117,77.02880933291826,1
58.68648648648648,111.60745675780066,94.4349681715118,1
58.96268088347296,104.1168205227881,105.25928239203152,1
56.17974180734858,108.32804434519078,110.28976809168188,1
71.13832199546488,140.1850267429286,85.17158593683214,1
61.204042348411946,138.30125383051347,121.01481660971515,1
39.49789029535864,107.52150599790866,177.3700893538491,1
49.9068493150685,115.23620345544072,148.29452153478826,1
57.28301886792451,170.85761148087698,127.19207395807273,1
58.58695652173913,179.13135356017818,128.17607012553523,1
69.75609756097562,107.34391353500644,86.39481701538207,1
59.33901918976546,130.31717281473684,96.13793177544028,1
57.166666666666664,119.36560872240048,100.00235675152356,1
62.85468749999999,109.88687297504796,79.57031049801861,1
93.80898876404494,372.8846297255575,189.79680411418263,1
77.92607802874744,223.85965502219472,186.7755184268441,1
52.52387448840382,160.37777967829172,99.00704524219375,1
37.53296703296703,303.15480704271783,255.32616343871115,1
64.27016129032256,149.12920447174682,149.38121527208335,1
55.2,513.8339920948616,256.9169960474308,1
75.1547464239272,142.9500687550105,110.51514038554532,1
83.35669781931462,105.4840818886457,78.73053849153662,1
102.15772870662462,133.71398636485137,95.5148755687437,2
71.26566416040099,176.46555688279304,118.02180200569308,2
102.76315789473684,94.09051508770207,64.3907347538036,2
71.05531914893616,136.57127749799912,97.21702665087086,2
74.1111111111111,179.0029684457273,122.65079487928736,2
81.29368029739778,87.35629992954667,83.12204356180183,2
68.10521955260978,134.76705648925423,102.38917910187952,2
62.28305582761998,132.5215301818722,97.717982562626,2
70.25263157894739,116.3802888219555,86.87835409650461,2
86.96875,217.3142926062534,132.2929054438023,2
69.49999999999999,149.98557267326237,105.23928631942636,2
88.50521920668061,129.7894551168688,99.49766097571872,2
103.31081081081084,125.36683084026696,84.18254263499857,2
58.746130030959755,251.6312813347535,151.5149223805336,2
53.14660831509847,270.1323920133422,164.1439386401207,2
85.29384965831436,146.6617072176446,98.32798422819523,2
73.78048780487809,191.55963785288105,132.2912665986315,2
64.75764705882355,180.58933384484288,148.6452490405998,2
79.42857142857143,192.64258012243675,145.7090503438848,2
64.436974789916,170.4051703929744,128.66582173852547,2
76.2191887675507,162.35620118827896,117.40916425253992,2
80.05235602094241,186.5511731694657,140.66800519765795,2
77.43612334801763,82.76110093839239,74.7569475069983,2
71.85727355901192,154.32937295746407,117.3291469197738,2
69.205153617443,191.88315880198869,135.2745533846575,2
76.33620689655173,157.50506409639178,119.75697555370054,2
64.62928348909658,201.97246003630949,141.60581530495352,2
67.64869151467089,132.86339077282463,107.11852637857469,2
60.96385542168675,153.08234569989793,105.24527237703045,2
69.77319587628867,157.80817502546793,111.18060163585416,2
86.54716981132076,123.46997558576015,85.09329479288733,2
60.210526315789465,120.0859870708242,105.97065259682604,2
84.58297872340427,141.19994191019,94.45742781598643,2
68.87387387387388,117.72400261608902,94.17920209287117,2
66.89120370370371,133.8012853020551,99.13300948401144,2
68.73626373626375,145.80442648533648,103.70922169483148,2
68.82292557741658,137.30944164057124,98.4526442282601,2
63.781512605042025,291.794922139,143.38622250764473,2
78.8780487804878,147.91753862973124,142.07190886142226,2
72.50488145048816,221.98250815535823,158.7920237000011,2
67.57928571428572,136.72313926520113,114.33469095715574,2
62.87837837837837,220.0142328436107,143.30181025720742,2
87.52883031301482,137.1924121523954,146.96599421793283,2
65.94378194207836,145.1668882301905,101.29874948458192,2
75.13806552262089,107.15212843808048,80.68137863133927,2
67.2,133.98099501887742,107.15159811657648,2
75.68693693693693,101.72870788168754,83.6941923225565,2
108.5433447098976,93.79312040654196,72.01090725819807,2
84.010989010989,112.35077768814432,89.0239347399532,2
82.22500000000001,193.77460885937825,127.79487395275656,2
76.09007352941178,198.33204442763565,138.31721830285267,2
55.903682719546744,350.4772302562885,178.0149731627175,2
51.02521008403362,279.0892909374906,175.82269910899865,2
89.20731707317073,195.66908017297877,159.3131204338075,2
71.79729729729729,215.7682855961452,163.55447044562666,2
74.02183406113537,128.36344917753536,115.36222345896115,2
85.1938775510204,138.125871739564,115.93435720374904,2
95.77287066246056,215.9750592761748,142.66256223931973,2
53.91028037383179,165.81958073836392,146.9227674891581,2
79.6340493237868,109.50755316276776,77.10165190113314,2
62.92227979274611,105.14816944840732,121.7261363118075,2
62.333333333333336,187.75267283766652,154.38710324253927,2
69.6476683937824,167.31256292776698,124.45777756725587,2
98.56617002629274,136.1835248241462,101.358750346578,2
73.86091127098324,74.15547295026803,59.43953104828192,2
91.87894736842104,152.6680490114291,111.10658102934948,2
104.68965517241378,205.10967009543953,146.80724411851688,2
81.1145038167939,135.67056605866134,105.5026271954942,2
63.90804597701149,174.21418885426002,133.76273777953838,2
70.01144726083402,145.10525017895674,110.68778992031558,2
65.84096385542169,76.30887740422314,102.45571495202636,2
56.22222222222223,155.69374678057517,175.3251852488293,2
77.88864628820961,259.8251667261107,174.46879125240855,2
92.13294797687864,224.83533305550023,127.710863570016,2
83.14134275618375,242.8499155621444,178.4575814837813,2
82.29959514170042,138.22225147442452,92.18995242438052,2
57.7780612244898,181.33577803393055,181.4311230150811,2
55.1487826871055,188.77837885246456,143.9112735193968,2
72.85,151.15708092409895,97.36773795785192,2
69.5336787564767,135.36608356603315,99.72810003465275,2
67.38509968520462,120.76254092589538,98.9362364358031,2
77.3142857142857,116.82028057040846,87.19112352912379,2
76.92094455852155,209.6847449829483,138.825716341424,2
80.53979238754326,175.80618803265213,119.708014386297,2
81.21458923512748,97.3543382544885,82.4063865780022,2
74.6101438304315,116.9912919334644,96.51393002330596,2
57.283018867924525,474.3083003952569,180.04809444949208,2
77.07284768211923,112.37629847978904,132.09059185822738,2
80.3561116458133,79.69321842706269,68.53213540140649,2
89.97264437689968,118.08809538646244,120.1475298390274,2
106.52868852459018,300.5657369019243,155.7727032859892,2
79.060014461316,91.49750540730844,75.93754803236534,2
60.0,173.41826852553598,145.81712842447993,2
65.5251798561151,88.38213349801555,70.02731101933236,2
84.77421509686039,132.57900738635075,90.64699758688324,2
74.32477341389732,106.39867742504192,94.95576959964748,2
56.70204603580562,189.49209927657057,133.3659050846883,2
66.02158979391561,163.63631135640028,115.30397486410112,2
71.70452261306532,147.46271693083614,102.26719443989742,2
55.80882352941177,39.52569169960475,205.22932783789992,2
70.03811434302911,171.69089254929452,128.75343824794274,2
57.551546391752574,170.27355883178302,154.37795706822985,2
78.92014134275618,141.43827071407893,106.75544320127234,2
68.72800000000002,193.05759600198303,126.11970050154676,2
85.35167669819432,124.53617872077209,84.1877979538121,2
75.13689095127611,163.71068376710213,126.96372792453016,2
90.43404255319147,137.6322952290921,94.30151543822284,2
105.68354430379748,106.52271366334185,75.67645945110225,2
72.93385214007785,146.57687489656507,96.29711239751164,2
48.1904761904762,462.63636010749497,258.9360211730375,2
87.1065989847716,119.17343332584116,89.86706707365836,2
90.2170542635659,105.19578012299942,78.31949726829929,2
66.64543168482815,139.70087507557193,99.27761107990456,2
54.591647331786554,245.62934976770504,177.73646403903226,2
89.50471698113208,105.31946714999388,71.42093072527781,2
72.90335051546393,176.367861773009,137.90758728400658,2
64.19701986754966,164.33246340715422,113.27689140853349,2
85.09694793536802,152.39402656154184,117.08252452133776,2
76.78599221789884,137.67958342675234,101.84332152292016,2
66.04966139954854,162.98571945469004,133.80728449275827,2
103.90588235294118,102.10395019888708,77.37134825871,2
71.50000000000001,318.70903391265153,142.6497820468012,2
74.75456711675933,189.18356566422108,126.11285593552462,2
96.61855670103094,304.88811523151486,157.46957588026683,2
59.43396226415096,87.82306547698016,96.42705310701888,2
66.04951237809452,148.37984985969393,108.24341952740625,2
64.68749999999999,139.30242598529816,100.5469514009956,2
84.33333333333333,197.29880279146164,138.8096673630137,2
68.42870285188592,140.06903317437587,102.16110477688191,2
94.08639705882352,241.36466208259137,133.03004042974788,2
86.94427244582042,156.6550981632953,129.82789105795823,2
67.17557251908397,147.23587458926275,100.61740171601684,2
80.12345679012347,151.95573637680985,108.09293131961547,2
75.65853658536585,232.84400310771488,157.73217050580357,2
68.06465067778936,199.77277217272925,136.26532188772072,2
76.61420017108641,173.45997064674134,132.49319802116577,2
74.0784,142.51190812110627,117.51897309831334,2
89.18249999999999,118.60510419153492,137.24088563670236,2
69.19934640522878,127.28678990014032,100.83944075149516,2
64.34200459066565,154.63979586298672,118.78082894815677,2
73.88523047977425,162.10372754940184,117.6123290637104,2
101.36482084690552,239.0980691930821,193.7315212506387,2
76.70744680851064,200.24616803123408,117.93665723368728,2
72.82051282051283,139.89749836728254,112.52135521291262,2
63.51469098277609,118.77419293139413,111.12322945614056,2
61.51807228915663,116.13649997912523,89.59400212055019,2
57.283018867924525,217.43035784752996,163.56665372773566,2
82.87589928057554,134.97392218308588,109.74877495972818,2
71.5634427684117,141.70759627842577,104.2228800665549,2
98.13005272407732,118.66714156175637,78.60577018214741,2
61.21565059144676,181.10630361095085,144.30042660853886,2
71.09847198641764,148.9347746535748,92.11034120177912,2
76.80357142857143,221.396803383479,157.8289955682598,2
69.14873713751169,126.10497564353564,117.35283952326296,2
89.7220447284345,170.505128095033,125.79209574236624,2
85.31092436974791,145.53809564811763,98.69582964425506,2
79.54095940959411,113.2185607159244,81.14843693498233,2
65.23020257826889,172.36210649946588,129.34122531104055,2
70.74736842105263,214.62612206162615,150.81688801986655,2
63.54368932038836,133.11860460800355,99.88084394198724,2
70.76023391812869,166.3920583166324,114.12655890330858,2
83.11340206185567,209.06086876179253,161.95028369892222,2
82.40119760479043,118.80903940212524,82.18040909078161,2
69.10734463276836,180.23369266780475,123.73601205044172,2
103.75886524822695,232.82639354850824,148.0968154635772,2
75.48037676609104,147.08406720536178,112.39363822746816,2
73.36405178979435,141.5820804761234,99.42277535320495,2
94.42361863488628,118.43276279785516,83.30462439217109,2
70.90647482014388,130.01762580621713,113.2697879122464,2
79.26254180602007,242.46086637918037,151.5534304584203,2
69.18959107806691,158.01742054289102,117.82268789271436,2
103.48561759729272,92.48021187165826,72.35079424784419,2
68.7993474714519,141.30250130472868,97.68936918539131,2
55.29411764705884,103.33336066166206,105.5710177871968,2
76.1951219512195,155.0149649733916,135.5360724536032,2
69.03867403314916,94.29134885961687,105.9606745712896,2
71.75632490013317,195.2996613303967,124.39969299656732,2
61.289029535864984,257.05048149809363,162.78181538870012,2
69.60262008733625,229.2730627411495,135.07152356867425,2
72.71620411817369,178.298648509646,126.61506486663322,2
90.22437673130192,281.6290092564997,172.0197849119094,2
72.13953488372096,134.88654850902486,148.68092942384226,2
66.8888888888889,237.83697825229413,147.34169045257772,2
91.74000000000002,110.99125407767912,81.53760339819276,2
69.94787788533138,117.92209835475866,96.34085229703116,2
69.46892138939671,136.58865430679936,108.40395416694729,2
67.38509968520462,184.79489917709017,113.43783980892404,2
66.64226973684211,113.61690298144735,96.8485003196914,2
68.01075268817205,255.3922526347843,153.98592645768784,2
67.70278637770899,198.99906554757487,127.78267081245674,2
63.60440456769985,135.69473392798315,118.35346005508406,2
68.72057074910819,176.6708471845966,144.18234858364988,2
72.04712041884818,184.24399593626168,125.15980025644058,2
76.23436123348017,144.7777402887741,100.7794867604995,2
101.6190476190476,92.15203423158444,67.39966570395326,2
59.317939609236234,109.50596755679524,112.529386739415,2
76.5793327908869,145.51452744044778,115.02263129227256,2
88.84615384615383,150.84744697458973,122.96472129929936,2
67.85046728971963,205.59527935435557,149.97350184841008,2
71.02933985330074,158.33890508406446,118.3203518287357,2
68.65326633165829,122.5307247913942,101.5948833234748,2
109.8127659574468,193.44335864476344,163.1012314093986,2
56.618951612903224,150.67144942664927,123.91838478794998,2
82.05405405405405,115.0173310765569,91.07068924289185,2
89.23561643835615,266.40806116727117,142.8333570966575,2
66.99651567944251,151.3125481203115,116.22248460471069,2
74.91891891891892,186.3987025247704,176.7485338752693,2
63.229323308270686,126.72321280527684,93.63984599612358,2
66.64327485380117,162.034348677168,126.74563866617966,2
100.57584269662922,102.4172437919158,69.03168805712939,2
64.2801302931596,106.6212090275777,87.7523240478067,2
67.58682101513803,209.0634267900556,138.33088620977804,2
66.38161318300087,143.72563585559314,102.98390915484374,2
62.22674418604651,160.8416078371683,135.43414508296425,2
73.14673452078033,137.12821886554642,98.89934681112312,2
69.41815856777492,234.64655557805085,158.81421406790446,2
54.83755274261604,204.60201799258897,169.65713684465476,2
59.87887067395263,104.79404689660832,109.480276242947,2
115.24458204334366,200.16938361303087,144.30453317226232,2
59.35037593984963,131.40513166094243,141.73952423413203,2
80.18593563766389,209.9634032626655,132.65178494087925,2
67.12244897959184,141.46401222746886,125.89028175329436,2
75.89605734767028,139.78458708288045,115.02003397286308,2
70.05420054200543,135.5346076700569,113.71202057771994,2
71.89189189189189,162.9054111376909,140.65550763889965,2
83.58218623481783,141.53609148428114,90.08407576884488,2
69.28865979381443,221.10158864580583,160.248915552284,2
63.07124999999999,205.78329264293353,141.33164896510866,2
92.79257246376814,139.54232397666448,89.00970213607738,2
65.43103448275862,112.26038684659186,132.74984682803688,2
109.00602409638556,221.57752920929855,157.61982771014866,2
54.03534031413613,159.66717613778553,112.93447964573748,2
76.513098464318,75.82136553045012,68.1153173907662,2
68.27162790697675,103.25078055936248,93.6667108870244,2
70.85431400282886,123.0919946300956,102.06895331364086,2
81.97435897435895,95.2547131733654,70.01433569659007,2
87.24024024024024,364.26161715223856,194.07541155898537,2
76.21621621621622,217.2740438353225,143.32936564833938,2
82.41977309562398,115.8663837632819,84.23488525090688,2
68.27586206896552,129.1623854737196,94.46741380892408,2
64.44061302681993,98.60220177013818,76.47880437616477,2
71.7391304347826,188.93697232725913,144.92888264863248,2
65.02835332606325,152.95841392586485,123.41297464576714,2
67.66987951807229,184.25404410003875,126.181587952,2
70.83627978478096,104.1992491657564,91.23612615476894,2
97.95053003533567,98.20146043832796,72.08149699284292,2
83.24324324324324,94.03581371038356,67.079614804419,2
97.8771626297578,102.59804906930049,78.93283899954942,2
71.86299999999999,181.1063036109508,153.31223334905647,2
69.9349593495935,113.33761880161562,98.16702493106416,2
65.65743944636678,127.66136488315142,119.79349716689086,2
66.025,90.89587920660188,111.90981805082704,2
76.130615640599,159.13282123841688,111.68792236759708,2
61.731736526946115,161.14860663305785,130.1713752433409,2
63.70833333333333,186.33485908154773,144.5789862838318,2
91.29230769230767,145.58480734188427,98.31596254891764,2
62.10224089635856,135.9359692009583,92.98411425602208,2
66.85344827586208,186.05531965755088,132.41003381553514,2
67.23262411347518,129.06869027974702,97.13281424460877,2
71.7244897959184,142.84925185617348,102.34382252054458,2
65.79566563467492,152.27451765629374,125.4050384783332,2
64.75535168195721,148.15444162466136,114.5435050531425,2
70.11547344110853,109.57755268893384,89.93723520144468,2
65.65362595419849,118.98891693041368,91.98156171506784,2
68.25116279069768,192.86562706492748,139.1282557467613,2
75.19504643962848,128.60257591536995,98.53592230819729,2
94.32142857142856,95.16000902058816,69.24259246527916,2
61.82801822323464,215.51603071947864,150.3583970576925,2
56.758949880668254,158.69822509941824,118.29044026327264,2
71.21387283236993,120.48035919012644,109.51477256833071,2
60.58974358974359,175.82974347288663,118.89496642643093,2
70.84,175.8009668162504,135.37542047196845,2
64.75347912524852,171.6876914117204,141.2446113416787,2
73.24166666666667,151.52100663979715,107.44297771988182,2
71.15625,150.62213326111308,109.1770126891177,2
75.5421686746988,137.01521660583865,105.69723461423216,2
71.9381868131868,138.6976337149283,111.41920070036508,2
69.8974358974359,130.52648236548913,111.8555981541281,2
72.68702290076335,166.43716045791393,115.6845328417422,2
78.78079008520528,153.2495574872669,115.40445085411672,2
69.30000000000001,133.28264897394286,95.39538369412516,2
73.33592095977417,104.5317193265993,81.92749610406403,2
61.22419928825624,129.41269204541422,138.18352729053765,2
71.73036649214659,102.85893340259244,89.93486281181666,2
73.93258426966294,160.6404789201686,121.4416800954914,2
72.56896551724138,137.5653501912149,105.013857973402,2
70.46838156484458,152.89935662098938,113.71168638044932,2
64.49019607843138,127.4132258399036,112.72195142545836,2
69.31097008159566,190.32576849871973,116.25241118956798,2
66.18367346938776,196.879255037808,137.50344932669617,2
63.550903901046624,161.178440344974,108.64367132959332,2
86.06213450292397,126.05843863568596,92.0608299735338,2
69.65460526315792,125.98654085122584,98.75269107119408,2
85.21978021978022,131.48095719773465,98.14735771318809,2
81.44247104247104,161.9788755784139,117.64260222773784,2
67.58715596330275,135.549237352732,95.58364415676496,2
63.84905660377359,248.9717192370785,171.36616377166044,2
