,heart_rate,hrv_rmssd,hrv_sdnn,avg_movement,max_movement,movement_variability
0,70.18150684931507,101.27541569450123,85.14648291152606,9.81033921212739,9.935754223339634,0.048730749413863135
1,77.96374622356497,313.0132479172263,177.34437410392817,9.786996166684089,9.935557139698547,0.046202537350008024
2,78.16412556053812,198.8604743645873,136.53434919064094,9.908394689428343,10.147878976601156,0.08239124067264343
3,54.6525353283458,153.1026803233437,129.0402373729402,9.951761528230556,10.123180673393849,0.05698081901720201
4,76.24825662482569,120.73190433885942,87.77208277943531,9.848598190768415,10.06291317059936,0.0685793266317848
5,65.14371257485028,186.7039884159208,131.37839375459416,9.840968973153391,10.160320432669739,0.070888945452121
6,53.86720867208672,143.07821844938314,176.3041323015122,9.89447262188198,10.10743150461328,0.05695636780887782
7,68.12903225806453,184.7890250926434,132.65948284662042,10.091399343084982,10.6225863953679,0.06654764473883776
8,62.49251497005987,131.32087058676936,76.37314606831949,10.14697705429642,11.6881632795657,0.14037119317675678
9,65.5440414507772,90.01143439845303,66.77853622748735,9.907976120690686,10.439055325544693,0.07432081659558057
10,76.92933618843684,94.5021011026971,79.59445659443354,9.77374918838332,9.930969878742621,0.045927136376576576
11,54.77947072975141,174.3168147920944,120.06740857062317,10.011479074286903,10.234728699551333,0.07348820110763495
12,63.229323308270686,93.68740133143223,90.13584178286229,9.712723446745427,9.878540396454701,0.0598534110190242
13,96.07594936708861,293.13037498401826,175.10669539748247,9.862976671419242,10.068243318331639,0.06198182781637169
14,81.06965944272447,107.90676713360452,79.87315831493866,9.8413777603811,10.107411323946868,0.07460642315035178
15,54.20492454328833,145.40620790408394,93.02481714960516,9.460515197542957,10.05931130701722,0.07350579307678784
16,75.75076219512195,112.25582496516179,89.9835953540838,9.71635142986053,9.87777152740437,0.07648800913641085
17,99.67715458276334,204.4921420151851,185.6094216038355,9.792617050210508,10.004192840596215,0.06582574801889489
18,55.89189189189189,100.16687440566984,112.9225008906318,9.89137581596445,10.070100453138366,0.06921501432227317
19,70.02088772845954,43.52792631269878,43.956035582940906,9.697373769286528,9.904560515264887,0.06461162801133918
20,58.49436090225565,127.53860173822343,88.14521893887948,9.723162655300728,9.902677249944903,0.08539102875689676
21,81.09141660851363,68.75015056124474,56.474217754392534,10.041520600908994,10.232645664951777,0.06041572462186524
22,91.36434108527132,86.54238537190248,59.21291863034524,9.771847862044668,9.94068076444099,0.05058158591651457
23,60.963855421686745,123.82055743780698,81.86685840793669,9.535980540927097,9.819060153018517,0.06769220225998476
24,60.85523385300669,67.18075775484566,82.24998155611789,9.842714324743167,10.051643751766038,0.06147124002435304
25,70.0,123.58220766887489,86.49501076764409,9.77751469865784,9.957254140175554,0.07192509152099229
26,80.21951219512195,133.29526828015992,91.79907069920745,9.776090711887843,9.959119898666307,0.058684432306484145
27,69.63302752293579,104.8795913100322,74.38624057566183,9.757635666863584,10.676398913747486,0.08260556033995362
28,63.48202494497432,158.4683228165895,109.63702817183443,9.611742831477482,9.818241722905883,0.053894559841857294
29,94.0353982300885,300.7302295260429,186.30688372903174,10.051360727476045,10.407103887093491,0.06624167443036819
30,59.33185840707965,135.04529354151774,104.55653467564701,9.889130464834318,10.142173497275786,0.061945690643332094
31,104.4791271347249,164.42902003141282,107.01100478927445,9.74736060043861,10.071068404309482,0.06189084007051754
32,64.22360248447205,133.46635155656747,104.3591563653092,9.895320398007241,10.159444464907592,0.04724219124239407
33,96.76494023904382,262.9275631551398,143.00351421350103,9.568111435633668,9.75370744363892,0.06191924713827197
34,72.3349217154527,100.19954304471747,72.41877748090378,9.83404253459122,10.024109497501168,0.06681273040248027
35,60.052747252747245,167.13339535071916,115.46611177105758,9.858047186534986,10.027345797210609,0.06160157559658133
36,73.88495575221239,100.39535731240352,69.89145747224893,9.980818737780336,10.18239602010939,0.053989145437692745
37,67.35153583617749,121.26752421777913,102.09263235257411,9.885783036060692,10.145019336422857,0.07585053009765114
38,71.16666666666669,124.99818250288247,91.44871873499906,9.600547239571583,10.132550051512766,0.05897563549819406
39,62.02143335565975,158.8421446435583,82.10475765674676,10.186465912230407,10.38735762750614,0.05705128420236828
40,66.91270527225583,178.96018059560112,137.92193273826294,9.749504882896849,11.009839436387942,0.10736660563389906
41,60.93525179856117,53.6296520736378,62.36180706608856,9.778812278126068,9.945217417273966,0.06008653541505618
42,103.12500000000001,154.51082777778547,107.72666665529367,9.776443121841481,10.060266423731926,0.06818538621126789
43,61.28902953586498,150.28286845096216,128.0395650878558,9.787087921410983,10.295942579256051,0.059387163023996645
44,78.15582558970696,88.79382204284423,68.70523164831697,9.843304854875662,10.013251713069058,0.06010774172325865
45,59.02598366740906,94.77682633217422,77.44176235432698,9.675651509769395,9.876277379641879,0.07116717352549576
46,84.33333333333333,128.57756447429804,82.01514886685595,9.678199924979811,9.85305119925906,0.058546212745913664
47,69.70441176470588,148.26714896799533,105.68895711033572,9.956252446981434,10.098386811476692,0.05555388824650204
48,76.59633027522936,137.2013014135673,95.5649982288595,9.715036373337789,10.03016335062339,0.06516980059645963
49,73.5933429811867,111.57697421577286,79.59104944950639,9.613832760578797,9.774962505981284,0.06749608850540117
50,60.462711864406785,94.0224455045723,98.26067896041397,9.779425355266822,9.9444570860285,0.04895422077416718
51,68.22471910112361,141.19028537147625,102.48680529890824,9.935824403499605,10.084114869915672,0.0627646538561221
52,96.07594936708861,302.31340989680547,176.58741425840853,9.790805860077024,9.98241181143171,0.05839246955458045
53,82.82038834951456,109.76408250193886,87.6850508409155,9.75479027589121,9.927023111535538,0.07026381521117288
54,39.02841677943165,113.4824064017786,110.23624963171851,9.84885033867464,10.060070000803739,0.05982966742080325
55,48.77276326207443,168.67410990612964,151.86998494059304,9.457552821956043,9.683735767877403,0.07008610418550916
56,58.40065952184668,106.61241690548007,92.39839458714381,9.687744487471184,9.860936029945968,0.05348050608217591
57,62.86666666666666,54.650822011360866,76.88191280199321,9.704640121229193,9.892583029843538,0.059971831075116756
58,84.4304084720121,151.29899137366513,104.24084587552944,9.877288067723986,10.064721441092683,0.061513216275847035
59,74.26187050359712,111.46231710516037,102.21588623403518,9.926544537907224,10.12992383091093,0.06807248030599145
60,66.0,164.61942324574716,110.6248723566974,9.914734654658135,10.40417268902285,0.11788320982762274
61,79.53846153846152,103.6657842333207,115.83456681438732,9.689796393894,9.873792985427034,0.061530354468873595
62,71.73314801945796,76.61844815771697,56.1480477829502,9.740323948924402,9.93472727095359,0.06739719619223133
63,82.31127450980392,95.2040510676649,76.14641510690319,9.85952500583558,10.036211270080166,0.060472293223966835
64,76.96153846153845,226.82834483960306,176.7327366689977,9.712467021821196,10.604536037723907,0.13605823424466434
65,60.43478260869565,185.51649423528286,150.6751412597065,9.992982674775122,10.187923863773356,0.06933420770105266
66,81.79886685552408,82.71348973001692,67.14373633527217,9.923046379195956,10.105332924396185,0.06812003885080176
67,69.67494356659142,153.1734390407175,103.74276857713163,9.700618431071238,9.911614374289583,0.07684558104139075
68,51.26257753273605,162.76450829556538,137.34330895920797,9.63676253122444,9.851006607563264,0.06684740554639867
69,54.1127572016461,194.71620267453687,139.08529566749374,9.82238773198312,9.996809834830493,0.05169507762357183
70,62.401006711409394,54.914153989314634,85.40557188072229,9.754570860587114,9.93594921416208,0.057077373513757385
71,61.4673366834171,144.5071155713361,102.14845420168264,9.825845018552325,9.992875320418612,0.057150914443345
72,81.26959847036329,142.63932156463517,121.39213135230769,9.634322095682009,9.861713614087227,0.06708070057647181
73,49.538156590683855,218.64659878244873,183.21102308911733,9.666351825400055,11.32889826330465,0.23157942165736234
74,66.11978221415609,65.40391625783566,52.880745579717775,9.826436133986686,10.060216624728753,0.08004312616030514
75,60.3271719038817,75.49974782217548,99.38441342605395,9.742263678562013,9.930643768029281,0.06340939662352954
76,82.37481031866464,110.37439275157956,78.45914793665122,9.850351597102426,10.065857142219489,0.07753583537988164
77,82.98492840994724,115.36831122506987,87.97344912372971,9.701989068589405,9.85895586736852,0.05120919355060701
78,58.861224489795916,114.99385575616212,68.95390275102173,9.702638149700944,9.928591222813733,0.06598078916958601
79,66.50363372093022,146.39715036142144,109.75037337504405,9.83125498688357,10.016782469886204,0.05106421421765584
80,58.815276695245515,92.19864597038358,93.68967922600856,10.020138478705547,10.235388804017562,0.06063071194128942
81,57.73431132844338,97.20759701201023,102.13388101110404,9.693586196367413,9.924803744407173,0.06068945584067718
82,53.96470588235295,171.6908474010676,132.96665081296626,9.841781189441654,9.964949291557444,0.048416732204910023
83,72.99266503667482,120.21269822723752,77.62485261655252,9.662301218826956,9.855899045341934,0.06905137186852897
84,64.27567567567567,163.94887290976493,142.29089961859805,9.75030598916716,9.922730156173454,0.05607880594088006
85,62.07984420642649,134.95082323017192,100.66121804043321,9.852058885671664,10.279772599879054,0.06674923968871978
86,78.90070367474588,115.10125024024227,91.58820501201558,9.965548766790858,10.262015307956728,0.09868670846528024
87,57.62738853503187,122.4331664608104,98.66344836910544,9.916639171920167,10.097312394970508,0.056260703279282905
88,55.65536205316224,190.306326652754,135.48364163511837,9.797141801539718,9.980189486820855,0.06225882281228131
89,89.35744680851064,90.81005959070531,66.5063679226481,9.862668157280416,10.025396361384967,0.05375884931996668
90,51.406374501992026,132.31898486402886,118.66821813694344,9.786460211389965,11.793197081422186,0.09042238810966284
91,51.406374501992026,132.31898486402886,118.66821813694344,9.786460211389965,11.793197081422186,0.09042238810966284
92,95.44311377245509,261.91278683639126,161.3190463934961,9.82950217682962,9.969321558122006,0.05466530765648073
93,58.54585930543188,150.80741757967655,131.98197592437137,9.985855794524474,10.151433199764533,0.05497851198799004
94,75.84825493171473,119.57059265576409,91.03154764555124,9.675634271143435,9.86435907477158,0.06605226321265519
95,103.224,202.66111355684853,145.44673564529802,9.89150008431035,10.089587036730459,0.06484279520898888
96,59.38386308068459,130.67550285861537,97.7898982850271,9.421315990606557,11.10917312981266,0.07599331641906218
97,65.69965870307168,191.0499925784042,121.75807782623134,9.81314358060164,10.045423660509538,0.05008949152736068
98,58.584905660377366,57.21319086606687,112.35999222097415,9.763386640194158,10.009212830934812,0.05808240431930157
99,68.32067510548524,138.9306344163523,98.92995940296225,9.745359719002778,9.932387128795826,0.0604770431594448
100,84.92507204610952,242.10165513241247,192.74730808981153,9.818562760466609,9.96029106568634,0.04770708731174843
101,82.40571428571428,342.587664493275,203.2954055095908,9.943542077693865,10.769475632432156,0.09112097237616472
102,83.31726907630522,73.4879250359311,49.39241668735949,10.040820312292883,12.387139135841679,0.14403795526884985
103,76.86075949367088,67.07732311651044,44.9406099173704,10.04350052570981,10.269109308669998,0.06958599000842704
104,78.42828008157717,119.99297094022491,78.97436110654976,10.033014793305506,10.881739619521202,0.08565604641339356
105,65.09671532846716,37.15669258462677,41.65996493650938,9.990248633425768,10.209185481999496,0.0760795323720992
106,76.09345794392523,132.01554729776387,103.02509880906878,9.91837750822907,10.244399099032075,0.058482080302390306
107,78.51724137931035,,130.42812828210361,9.820770350158089,10.020947572827017,0.05861245955814159
108,68.90444258172674,80.32191619547356,73.48469295954582,9.800357489727332,9.990382597752413,0.07172731539019007
109,69.02356020942409,222.64728110679573,134.08505962140165,9.73720935865428,9.929372518660006,0.053265660800264465
110,52.93685202639019,166.88824645498235,104.39493796438448,9.853435166758189,10.002639658073427,0.049012947250918794
111,91.73099415204679,108.24556472434114,65.71005343223321,9.77153236772099,10.23863045983939,0.06937950494188011
112,121.69620253164554,175.2850421034265,129.4307487439341,9.75579412142309,9.915311828458083,0.042936505811953234
113,65.40361445783132,124.02703440281007,110.25110441149492,9.886776385028163,10.120937919462495,0.07379570251937714
114,72.24945054945056,128.9601835852582,90.72807109656034,9.815938243230761,10.062392682351009,0.07277994430674098
115,71.42028985507247,171.86338010215644,154.90917787567133,9.787206125531014,10.007058966468978,0.08172787837345116
116,60.2831541218638,148.8308260073981,108.27496311606033,9.82143511666931,9.991120809321723,0.054739942911748475
117,73.75344452501814,85.86041105228638,64.1159963149951,9.552467003110186,9.758569234248204,0.07047628714847719
118,70.34634146341465,151.9441712077839,136.50950461013454,9.969841453479237,13.176199970778187,0.1513725662914402
119,72.58970358814352,95.05533722769071,67.36277439901473,9.919360478557557,10.117687628666467,0.06623932207745573
120,51.70104068117314,198.64585754326845,199.19292446059796,9.982194594557326,10.20774117689583,0.07444379605635487
121,71.26129317980514,43.29822588973642,51.84024818251251,9.741993376135262,9.953545302358691,0.05506545050594128
122,55.71888988361683,141.09541004300831,121.20878160996209,9.78812518978384,10.110305882069,0.06273629207778594
123,38.8125,152.1791971351181,137.48331877469064,9.735886876654828,9.95478003364643,0.05605995141148171
124,102.28782287822878,173.8029196612633,158.7777050657429,9.829784788028782,9.952217074437712,0.049697728368830865
125,57.97156398104265,164.64838566813336,110.0114200065687,9.961804915210207,10.110959952694285,0.05712811423768615
126,55.828371278458846,127.24348695383235,88.48228325648904,9.917920528463366,10.132394585438037,0.06490318608877073
127,98.02094240837697,238.01936339683846,204.99498457533997,10.383115222620214,10.592372833270504,0.06554179849327318
128,64.09069585613761,107.72887650106671,98.54276107331475,9.86170483702271,10.202494290299153,0.28090899216380316
129,57.817774458551156,126.54395726151873,102.00780211592897,9.957068146296592,10.160428910755897,0.06315226716263869
130,62.55466130114018,151.98103386033029,112.0156048917205,9.904715946024421,10.061322815934775,0.05564065736167879
131,59.90182868142446,139.6597038893128,127.58895792203374,9.873612910891936,10.077183250540534,0.062135607585563475
132,74.65573770491804,240.42539645447508,136.92101245603774,10.384543916528875,10.59398318188101,0.06352150922840992
133,81.46311475409833,102.34867869857689,79.71143460416907,9.866369385138162,10.003074679380125,0.05978495051233092
134,77.0,232.5683936170303,164.24937367713923,9.803051905236567,9.968666235261738,0.07060220999959478
135,73.07805907172997,85.00191407759648,66.10478030595209,9.803991749065604,9.960143976740177,0.05601197502744719
136,99.45517241379312,272.9849272700713,147.80378338532648,9.809438572667188,9.981532993645136,0.05958978044541462
137,73.75142531356899,156.15804167242285,128.15257036784692,9.878230713057437,10.110232544239539,0.0655797454648764
138,80.26206896551724,122.89036960591322,181.28430306568953,9.836996973113036,10.057092596179222,0.07031337612359606
139,110.99099099099101,288.2347279630505,159.73729012127245,10.117227428534584,10.362676261832696,0.07037598378189097
140,62.46887159533075,118.42894306384576,78.12592716198027,9.590184934574973,9.76860807533227,0.05867517028085641
141,58.02752293577981,162.0280890334862,109.3540962263436,9.631853501603798,9.809331961390663,0.05497044800335943
142,62.77830508474577,88.8229448784357,57.03539450441364,9.753251502296141,9.954530913975297,0.059937598613942024
143,51.80351602895552,161.03991136334673,139.48496858879133,9.717256132249696,13.1940714427704,0.657977638257332
144,62.05660377358492,179.39613783257258,134.51432064892717,9.968707757747545,10.926327709968263,0.2845873321370245
145,70.61067503924647,137.4666338455441,101.07301668519771,9.961843599797406,10.13315614158791,0.07060703215019679
146,117.5020920502092,234.2543397456462,175.89704059611384,9.810300606416243,10.031208144105603,0.06428756441348288
147,95.08045977011496,309.4777562862669,183.60920307218268,9.917095429673315,10.10447003888381,0.05355127665464659
148,71.56006240249609,92.40858919309319,77.48438571416551,9.946404351795836,10.25783157077616,0.0743990413432613
149,74.04878048780489,162.2824151688302,113.52890605806381,9.808568614085896,10.00362129117483,0.06008061415728444
150,65.70848056537102,122.58731027994568,120.90556087720601,9.607517163396283,9.918191299461387,0.07324708596497076
151,53.430994602929864,154.53201177684195,123.55800444077123,9.882031205900565,10.095956435675058,0.07084123813907427
152,67.06867671691793,156.26707156294268,99.61372540231922,9.89569430272566,10.004552036509699,0.0542038157150539
153,66.12846715328469,137.1095040905592,130.3263802173487,9.791338591154945,9.947881104707868,0.058676142082436426
154,117.00818553888128,32.55946525881084,19.292150453863627,9.727614251515831,11.288775640329131,0.08159978995764029
155,76.35814889336015,168.24043259823802,132.900399580506,9.841161129158149,10.323532094048433,0.08513583248001969
156,82.05405405405405,101.16787492501274,74.20942037754382,9.856705255277134,10.051446661909948,0.06404430530147058
157,77.84615384615384,160.55411866869488,116.00394148298906,9.929689605388182,10.113567957132746,0.05841002460419304
158,114.92483660130719,61.153202548644586,131.1402998304704,9.945545701704184,10.186673410170004,0.0692301516465364
159,65.12775330396477,162.3889982255447,121.5230507852474,9.836000883302047,10.00675571913257,0.07163914524560948
160,66.609900990099,100.68544354702844,82.37899926575056,9.672082236780795,9.83946764967753,0.05500582185478893
161,92.46376811594205,101.22374849428503,73.26608976857669,9.833633892920679,10.094893671241273,0.07396737098961471
162,75.9,,0.0,9.900613922853422,10.100361840655614,0.06258587174359381
163,84.33333333333334,335.7191755210559,167.69330779127608,9.912059749104538,10.116278368644025,0.06625549271350496
164,56.049230769230775,92.00749601784896,94.03229528076545,9.81392617926936,9.970010146335076,0.05480581499633021
165,71.54752553024352,154.13776766451224,82.93857349463472,9.33819263454735,9.592773055513078,0.07077492917786897
166,70.4157002676182,130.18196895297461,90.86726255530205,9.815631688449477,9.993011829164873,0.06541251765547779
167,77.57894736842104,154.3119425266682,110.37316941947356,9.746549950243578,9.919840603249805,0.04381003280149371
168,63.63835877862595,124.62472205134688,86.71193025970216,9.671682460865657,9.848761535598937,0.05470668491106573
169,74.38475499092559,208.49017242308517,144.0301434782473,9.835039724891322,10.026411600051805,0.08400703627731608
170,75.60989010989012,291.02152336542815,133.10954892063438,9.982550987825334,10.14374856547696,0.05935632711693549
171,39.917355371900825,195.94443606453592,158.23983733111695,9.873679250133723,10.072756481850014,0.0592120932853893
172,44.91124260355029,265.1464004940462,133.9992846913425,9.655561406049756,10.16700171918001,0.057866904163190645
173,49.126213592233015,178.47453470545543,146.24505928853756,9.885613487974748,10.130426790449079,0.06998715658236873
174,67.0527797325827,85.58518727171516,68.27052286741835,9.77760981846823,9.917582969187704,0.06145698261184274
175,74.04878048780489,343.0623601130839,179.11600141797737,9.842052035015664,10.425008521130106,0.07900169135173735
176,63.1383344803854,106.97157821876083,89.51029666511131,9.759189146047166,10.068877375612374,0.0763015364627075
177,71.58048780487805,163.53153474639092,115.29663885815238,9.839253482560293,10.044181830719031,0.06405773242699492
178,53.64360902255639,172.69411430781693,118.22764625878372,9.759947257374824,9.965291731730956,0.06440436131682964
179,63.14681892332789,144.36841591779591,110.1283091890668,9.950069237390666,10.20536286178676,0.05382373624275537
180,87.09836065573771,216.49112944868222,145.39122743742215,9.880431552137763,13.026340584942327,0.1903112818880658
181,87.44491169049621,125.17064928348447,87.87333986850405,9.891643049570375,10.087470909063187,0.06905781445376692
182,66.0,131.558409599042,108.9648122694879,9.792964956907044,10.02947910639433,0.06825193531880085
183,64.44125560538119,187.39530219181256,130.18477651042696,9.745516103068582,10.037840611787775,0.07840017839405518
184,71.81935483870969,122.68841323344445,86.4559366192911,9.760129934946995,9.924889052840701,0.05336751573363804
185,73.13513513513514,131.09188894685377,115.08084822436443,9.857467708616653,10.484779489648764,0.09115655541376934
186,54.25227750525579,111.65285111962274,114.90082494456634,10.029905302509087,10.269999338013468,0.06817420211359103
187,69.54980079681275,98.18560286345291,95.15633751439854,9.791218390216063,9.97271802197264,0.056917748548467526
188,62.11764705882353,146.5072451345394,113.50202576739274,10.005197013346233,10.178111136739208,0.06145555276040413
189,69.85056294779938,180.32943206524445,129.2481119779241,9.822423822390626,10.02635449471314,0.07819353917716979
190,70.88079470198677,210.71293255182485,152.1360375047584,9.76033918374008,9.952060013842974,0.06209656119518422
191,85.2808988764045,381.683950905691,187.73663378716074,9.769150177808944,10.000022834679346,0.07445436096167118
192,73.43007915567283,87.49384830505397,66.1625542880857,9.79463594293391,10.084190455889507,0.07534192486161305
193,74.48921933085502,100.89608539276452,96.76034140885112,9.799886202547805,12.298499818034081,0.4017408048960218
194,77.36591989137816,109.71912499166105,86.21275308514487,9.726781564261941,9.921296233439387,0.057034560143413
195,74.27124463519314,57.487596233472296,61.952735161755925,9.962343756342305,10.149652435966107,0.04973423613784614
196,71.35135135135137,78.72131355093363,99.98808690307006,9.718073457329668,10.471179660439637,0.07396034065697658
197,50.224172856178264,215.13380491183048,168.31299047119293,9.914783741942657,10.231951319111552,0.058729097947375436
198,58.90710382513662,129.82533934288975,108.26997921295282,9.844111433722494,10.03049236207191,0.08627305849297158
199,70.96200485044464,104.62717315511198,83.83731021988771,9.795667084375163,10.008888125439091,0.06536584528844575
200,64.79776951672862,108.87694131610085,91.1766652088716,9.892249465004836,10.05737276379463,0.05393812163367833
201,87.25212464589235,95.85788097270616,69.994458012552,9.889163072999525,10.078931869357206,0.07126131295102205
202,58.06329113924051,262.40186277047815,169.3399851686829,9.656814321329122,9.802576571446636,0.05866205529323323
203,79.48387096774194,96.75106769968401,76.54009892289794,9.87331106322305,10.205045379269121,0.07331482093537704
204,82.8,181.56022257479606,186.72474045150997,9.709069470225373,9.9692713048265,0.07487880319892722
205,107.04060913705585,211.09293209783485,146.83244669159959,9.630771944254173,9.815431440016143,0.04926010101346294
206,68.83435582822086,97.35929773501984,76.75240692196431,9.641610698429965,9.785945941816506,0.07128583841485424
207,70.40816326530613,93.29594377108019,73.37740006875757,9.829214703857673,10.253242746931,0.0637793679778654
208,73.29741077676698,95.84957430334606,72.19553304319481,9.848799708446561,10.152187828978953,0.0716593918478468
209,63.138053097345136,141.27324901708707,111.78288553234046,9.806525905299463,9.937774753473578,0.0466492527471898
210,81.47957992998835,218.8423452807451,171.37112975671715,9.887476549546408,10.138549883563558,0.074290057647347
211,66.19849624060151,214.34228092951128,135.7081525189492,9.729339220969898,9.978778380466908,0.07160277313113719
212,70.95911602209945,129.95780772803406,105.29637801649883,9.742602935037556,10.12306571596652,0.06855819788566779
213,84.9655172413793,88.63476747377909,69.38866971806009,9.78336483613981,9.957857459495635,0.059445921163774396
214,62.19661016949153,113.83121834057239,96.06560380358651,9.906193694637295,10.03967599622738,0.03906154711598098
215,65.27400000000002,199.13400030534353,122.67130431439094,9.905430971171409,10.110856181975363,0.06353854528842283
216,75.24429967426711,161.74835742026482,105.37902740312101,9.791703094767186,10.003702207215337,0.08110328081323172
217,73.0418410041841,105.9789067427489,92.4806602307868,9.788407326491964,10.334707804415626,0.07367724479234221
218,64.67079783113866,74.36714514714146,56.83236484302565,9.872767926558977,10.039815789376906,0.052878000770854146
219,65.46216530849826,129.45080788826178,95.88241973757697,9.95175851583141,10.132312719335872,0.08073183570307765
220,88.95723930982747,114.51423434122336,79.48997896436695,9.798825835761312,9.939100806931888,0.054509175491422576
221,60.528856243441766,136.92101245603772,121.10935194563754,9.67628323471623,11.217145349752595,0.13418573758416566
222,91.25806451612904,66.65859777835121,49.19445029277191,9.910334003143696,10.133769116690496,0.05770535288042315
223,82.58300238284352,113.13131288644215,80.61560731464225,9.751965094057658,9.891708242005688,0.05454216014688812
224,135.48101265822788,75.62779162794753,54.351264401565864,9.73171140435605,9.899053449862674,0.0459355288386116
225,104.3625,181.1294741089265,145.66312602020218,9.76296397506319,9.932899730484557,0.055209982492547646
226,69.47046560111188,99.94943171110879,89.3117248578478,9.730098417880653,12.075969144431182,0.3972762180070221
227,63.22536181943489,123.1084229044885,91.60748247603156,9.875823852828965,10.041858999487422,0.052074154669809566
228,68.70721357850071,123.19268339509564,128.97410016667203,9.987980924401358,10.189455757066504,0.061562252305203374
229,58.628392484342385,88.9693966594684,103.06375041292456,9.756405775239992,9.92270505583203,0.05871377502364534
230,109.02762430939225,325.9372036061392,135.56398181579783,9.74551977097855,9.962417828246044,0.06419859070695018
231,,,,9.728949032214024,10.778398219707068,0.7091887182104443
232,79.0625,158.57261260926438,146.00832396516302,10.049023691484477,10.27008338190083,0.06812140488226476
233,51.699999999999996,206.95076742145284,133.62216467035176,9.86761842181936,10.026112007546024,0.05707263300320976
234,67.64485981308411,106.08363018028696,98.04473611058398,9.776712786646577,10.010726816266837,0.06503258955620869
235,53.600266489007325,155.3229318585314,129.1147803361994,9.882265897687331,10.049651670453644,0.05217843553145247
236,88.61111111111113,207.21161932081208,152.59046159785777,9.815477503138867,9.956482364281898,0.044855882029481126
237,60.01078167115905,96.3806735916245,94.43382735849458,9.750756413834644,9.952412246100248,0.06471799173533269
238,67.10515740120563,187.32650411370457,125.70223624304485,9.877847637267083,10.062860255286417,0.060896026692659956
239,64.02607361963192,147.89159631517555,124.6892153462958,9.70849854278433,10.56055115341934,0.06671962803984306
240,70.20987654320987,156.64127160872135,113.39134397759521,9.952430710912465,10.113392596668303,0.06687233245059829
241,96.17142857142858,185.93132883410942,145.87147079018956,10.101947409098468,10.364855867512677,0.06520357002904469
242,75.79472954230235,184.5120365502097,122.35459718915001,9.729950114054846,9.894795157774144,0.046639512155863
243,70.75675675675677,168.75979653086202,114.85073761468453,9.81208676613045,9.930473465515213,0.05013417301038572
244,60.63330727130571,141.25662347006212,113.20552921966585,9.8326565662008,10.092621726534022,0.06971255458246052
245,72.77085330776606,92.9764361759017,89.08989200874205,9.691956026138312,9.917171044180343,0.07129389370274097
246,72.975,106.59863724082608,70.41556080133334,9.880252246717209,10.06582578630147,0.07215155761160842
247,70.7797619047619,152.9405371046627,117.2545626637516,9.935159087586332,10.2034010026055,0.07565074375465443
248,86.25000000000001,158.102766798419,77.45422111567363,9.718433088109245,9.944035334403718,0.06494667470202083
249,68.15755627009648,187.95815210502755,145.44442921042352,9.78697260125397,9.98936126141666,0.06917661084087709
250,60.57315598548973,52.43675557874157,70.12711063985843,9.679750445008587,12.968825985493165,0.10905809369528661
251,100.9196675900277,212.02206454444294,141.12533999264826,10.006790580048255,10.204416416324507,0.06083814442216817
252,79.21028037383178,136.64468318859792,87.61289937224691,9.741622534335416,9.986034029901413,0.06471211890410493
253,69.47368421052632,179.60151540180954,136.6725011678519,9.733991976393382,9.87602294621829,0.05912760487773997
254,78.30508474576271,81.5568927207435,68.55591188452365,9.967488087479966,10.181837566831902,0.06938209092424141
255,72.03163444639719,79.47075707629266,77.14426658618295,9.730274577644371,9.966585543749833,0.06949594901686133
256,106.03676470588236,206.75993360856344,126.33431621126671,9.945527626747088,10.224192592317756,0.09330188225762433
257,39.27692307692307,40.08636781321028,41.318405311000355,9.846012209838298,10.282742670006462,0.05961388461614266
258,121.34963325183374,128.30269982032496,101.77021467684222,9.721493523218491,9.935135082303713,0.05227362453667069
259,60.41151566469094,131.38223678636132,102.36396639275378,9.614602225031248,9.832220890540112,0.05455309437454494
260,85.02613890963406,82.90979036918193,64.76855439573004,10.099811622331227,10.305044526879849,0.07496481236605682
261,38.333333333333336,153.57536580301976,102.2878994848041,9.906615273265173,10.0684853594831,0.05551792004899143
262,60.190325138778746,115.61217901702399,83.76836046466785,9.914363484580903,10.17122957260012,0.06881767640301956
263,74.16694630872485,136.93851001231133,107.0593724209766,9.84151514810704,9.997253127862477,0.05946922367895809
264,61.01886792452831,125.35136124076121,74.9958550330528,9.835975170325979,10.05598351980263,0.05612548677956648
265,63.60335195530727,52.191722669843905,55.648780189572825,9.699220422245661,9.864386862964567,0.05447906080844111
266,70.6046511627907,,19.762845849802375,9.706764363356127,9.882918592496495,0.058574538316349886
267,38.675159235668794,122.67830668758663,93.22115743138939,9.739358822268574,9.998112381681917,0.07064818084811561
268,57.53352769679301,38.903200958556354,42.56612952265124,9.813322747412256,10.056549815932515,0.05603340471221554
269,72.28571428571428,,0.0,9.72285866796597,9.940463834868613,0.071545790144915
270,83.8159509202454,79.0513833992095,95.8165315295188,9.727303989111428,9.931513108569305,0.056265552861817045
271,51.48120989917508,119.21288166778834,110.8936162577586,9.915311248365825,10.144137461431063,0.061202709015736656
272,40.34551495016611,158.102766798419,65.35946914685255,9.73880829059404,9.96179107645635,0.060397434432694325
273,62.69720101781171,134.96499799238003,110.1715521999703,9.76286667911788,10.027191911918308,0.07738198421635666
274,83.70491803278689,97.05135399918596,65.40869357906905,9.384453418289972,9.594485535011735,0.054783897583249204
275,57.34214390602056,147.77503760566975,123.05370376548584,9.780365386728503,9.89659458835614,0.05659013862996877
276,82.29007633587787,260.94341008677645,180.61203049634085,9.582602590799846,9.760148571102238,0.07860176452457025
277,62.6697247706422,114.53060359142295,97.90732020029843,9.946025573270033,10.19467593745501,0.07543326918634423
278,81.64563106796116,132.97737349761843,91.02099403417378,9.668625935662766,9.89109025120961,0.07880788172311992
279,64.69646569646571,88.10550642355241,88.20845837229635,9.700144151711987,9.997835349651744,0.06578767031262892
280,99.54098360655739,71.84328579841488,55.18619994795092,9.791502433837865,10.601413221162643,0.1139154403315241
281,86.74496644295301,72.52436696089788,52.45929443235536,9.777978022453556,9.937541844097101,0.05753054705923879
282,39.29427792915531,133.0104088098446,101.5518639272638,9.907742161141174,10.267104770131073,0.0686455538752043
283,56.049230769230775,119.6699744702565,69.32663102717122,9.747775572567745,10.046584054408982,0.06946559259375437
284,55.04835164835164,143.352693634859,113.90579401575029,9.817292137937281,10.008814759558541,0.0601429558978207
285,57.37335834896811,164.2961688079798,148.01579499706187,9.689535930958215,9.856240772240003,0.0542831038025726
286,66.47826086956523,143.07821844938314,142.89051326072757,9.946413447016695,10.159456299957263,0.05953981657246034
287,81.1154144074361,134.87277727919164,95.0814289233551,9.777374836806795,9.899580284791327,0.0487712979975411
288,78.37500000000001,253.67267018576405,137.24768031235033,9.746951955363551,9.902696402373246,0.07051359676398647
289,71.17335473515249,129.3796391973646,92.816584053454,9.727952875316305,9.914252294872208,0.06437573103611077
290,113.54146341463415,195.70267849429393,138.4892758325449,9.750779213376251,9.907475618324504,0.04604826160739151
291,86.17467248908297,347.2116983690234,187.671624956047,9.822294750190228,9.979915614686039,0.051340400605317874
292,62.330196749358414,137.77411112990814,119.53107215415939,9.892976232440402,10.161812327429596,0.09277189053040294
293,111.07317073170732,101.54334054280736,135.13445486121827,9.9856993842132,10.18302908422285,0.05539726000870327
294,113.04255319148936,196.30651417327195,128.26444598080798,9.65194021393834,9.825783086974917,0.059143049603422815
295,52.76344936708861,100.757051784078,146.2137055503074,9.862015262373898,10.074107820081538,0.07123835358536981
296,71.83578947368422,56.12969053075528,51.715987936883224,9.848855876197721,11.930092411824345,0.23246192315899963
297,54.21428571428571,128.77968126815063,104.57515063496403,9.569637788793774,11.03299169540174,0.08249170461106048
298,118.4780487804878,162.9686018030696,130.5086851963665,9.94156754235249,10.116132203539927,0.05445174124444761
299,38.79219905850706,94.61207061418453,120.01453539499543,10.052271754901968,10.263418991735328,0.06189995558109847
300,65.04555314533623,132.63115178237035,89.08837874923712,9.84785633537548,10.187809566646044,0.06415113706159752
301,52.64739884393064,228.58170715279934,158.37701291398295,9.767714408914493,9.914483802305337,0.04554474479430033
302,56.435193133047214,157.84329601245312,104.27504359744378,9.70286485966286,9.946761434086122,0.0718684914234972
303,58.81256544502619,292.0970096938311,171.6348234463311,10.101984068257812,11.451154057478638,0.08241070156259256
304,49.5336505778382,257.3462645106021,166.62036140636627,9.89718375815425,10.086759190533323,0.06513702619187572
305,67.39178690344063,94.44636878328559,79.53778226324401,9.71472324634972,9.905198330590526,0.06080353858927874
306,64.9246435845214,59.03462401625905,50.99272420155869,9.895793598293213,11.411518366084753,0.2382493073703167
307,70.2777777777778,130.97022591466066,87.11969794145446,9.92987923768568,10.257183795605087,0.0725203894445089
308,48.59290187891441,165.347831330845,109.70559339252695,9.895976376861388,10.089160001891472,0.06244941622188824
309,48.867924528301906,172.7352063405993,161.18140968755569,9.794232517272382,9.964057584755645,0.06690208651649217
310,76.41632653061225,113.66114711169803,130.66027006875893,9.690383243774301,9.878127640327108,0.06449308386428285
311,65.813383600377,165.59628801693876,125.10044284140693,9.895122650410197,10.21311683237787,0.05443383965142881
312,85.05237515225338,155.97094654921665,143.4542781712651,9.697520932629299,9.884822637198935,0.06165859626057571
313,89.83333333333334,303.9551300409542,189.30480150929554,9.985033142788259,10.18017861477776,0.07659563090652136
314,97.93548387096773,,106.4261819591799,9.837070298906939,10.047387018677586,0.061255142591718464
315,70.78756476683935,131.47992696069213,90.85709646718135,9.758672565826537,9.919048743649613,0.06348372260566776
316,65.64324324324323,142.5119081211064,169.35905633401785,9.874625890056322,10.41391150523349,0.07588396299483868
317,69.3693693693694,83.89175406607093,63.543531546623726,10.427495879515416,10.625401030097818,0.06481782572170616
318,80.02049180327869,108.55068688741676,85.40092946312811,9.719512319669404,9.909434240664856,0.057109497906603544
319,62.46887159533073,171.656214854593,119.34420145257042,9.827740078352857,10.019409845234112,0.06300423064930717
320,65.79230210602762,102.15595232458985,81.19088390823437,9.751849596226007,9.9437533410013,0.0696490079909448
321,64.08214585079632,112.43380021321877,78.87801015619453,9.690011612907707,9.892422490257433,0.0786178546787694
322,65.81734317343174,148.5052023113955,99.00639241619,9.719275242573385,9.893106230458633,0.06372317077970793
323,76.10026385224273,261.0641267514409,155.20205911041808,9.772944022770663,11.681945262751112,0.13310810138035412
324,71.20075046904316,126.40358677210102,78.03296556049368,9.837309660518743,10.056369119902842,0.09429773508794274
325,39.428571428571416,179.6009280109333,157.6905033410517,9.904180855754825,10.128703243015783,0.06830225525280234
326,92.9387755102041,340.0128564048469,179.2025099965144,9.663034144082127,9.88098629459356,0.06908271894654856
327,68.58823529411767,120.68960655885277,93.78970762580184,9.939449961758456,10.149704264160205,0.0713516948959603
328,62.85445205479455,138.1071703809936,122.23775213933641,10.068585869532663,10.24545704309137,0.045175430274183574
329,69.14967462039046,86.89661369086241,82.70872404562327,9.929310512681731,10.138220566771684,0.0631601885745274
330,74.08722741433021,83.6134221395501,88.14575829285259,9.986386260108151,10.192197529540312,0.07038744342783068
331,70.0,123.20562312344335,134.96499799238006,9.76815133950846,9.885497129192292,0.05154562165392677
332,49.002869440459115,181.94906867527914,132.4065151424595,10.044269973272774,10.255805427788102,0.0730445143459924
333,60.457142857142856,261.3103147956798,174.487844824142,9.744981766564075,10.05724225234335,0.07061346164540362
334,92.99459459459457,41.48682040702362,30.64735253769837,9.824714733471314,10.045568717077314,0.07205134014233189
335,61.247496423462096,114.58413003350132,75.2502686648162,9.912701053355152,10.135780606739424,0.06343733985579453
336,80.62827225130891,211.61260697143283,217.938175651122,9.813265688902884,10.004459824329947,0.06322870191075505
337,62.92227979274612,221.24974471339473,148.46817392605453,9.888017715974604,10.249683118797185,0.09345016331803628
338,72.52388797364085,58.499041098889755,90.44928457427864,9.847899457248547,11.604900309208077,0.08997991719168275
339,39.34341252699784,103.89387204312585,79.2569790218443,9.470073844063249,9.651309136371497,0.05517071679807335
340,60.48093587521666,161.34235212548788,130.27188817203262,9.839701624817138,10.006285238448907,0.06696961713122085
341,93.22605363984675,101.32783463848854,64.67965008353116,9.671739420344826,9.853796939201036,0.050075940209359314
342,59.53628318584072,164.77425928295636,105.41936040754292,9.73594025877647,9.974444629208596,0.07442721925612021
343,58.329896907216494,48.94380927801507,41.39768736832911,9.686537115013481,9.929106831630179,0.07171181713757432
344,92.59701492537313,120.04504658301259,86.39346783027966,9.83786217904874,9.988063592394381,0.06298767581821127
345,77.30898876404493,90.82603987304296,73.81042395775907,9.8102325078485,10.147318976348062,0.07738526567435113
346,73.61784675072745,112.64441585356474,76.59830227198266,9.746324227411531,10.93001087511586,0.09544623674759395
347,89.29411764705881,273.08029318643725,189.82140822116494,9.751116979912766,9.972132395921543,0.0645023936522372
348,38.74774774774775,191.27884568002602,186.74289120627785,9.923606440566823,10.143998894263124,0.06880860374491236
349,60.938405797101474,192.87383118854487,143.6512985911235,9.765330073583003,11.212516554849122,0.07170746000823804
350,89.22222222222221,83.84665389563803,63.259090614261304,9.838720487661162,11.235251869625632,0.10010032588234787
351,79.13484021823851,110.44229783788899,80.93324920289169,9.836995040503517,10.019282125161286,0.05549400036422502
352,94.43902439024389,104.56072210162854,84.98630049951262,9.77997921252489,10.007945912182574,0.07115465906423919
353,77.66591928251123,88.56972338290626,64.79060083307502,9.655050673724144,9.80311136548318,0.05457519205309324
354,74.98185483870968,149.2397700147965,111.08905487987715,9.923074883271516,10.18395256892491,0.07327515425806819
355,54.69593495934959,163.29200194120932,109.70824173623961,9.739880955129752,9.910620667205503,0.053443391199494185
356,78.23830409356727,90.011943659991,70.7233282088842,9.978078697580703,10.17961525896673,0.06470481851831172
357,77.13081081081081,79.80787320405405,52.27573885432698,9.681097174358108,9.96663961649473,0.0627408246966983
358,38.621681415929196,227.78092799807501,268.9451817767951,9.83955437231647,18.173963921149582,0.25024725995123365
359,65.55770662695458,103.07039375814462,84.90071245921368,9.839737978551,10.136130832420667,0.09624268037515953
360,57.76460176991149,181.90188475210812,151.37001412157338,10.003179601802515,10.156641987841775,0.046474000572524016
361,107.06297229219143,210.91688331155353,183.8972200909266,9.662693131797822,9.961374656972426,0.08776074127609874
362,89.57142857142857,169.9199615011979,162.02303051937483,9.765419842278062,9.979921423521036,0.05803638396034784
363,111.29938900203663,255.0444487792363,175.57021225315054,9.980236659776079,10.238273464474233,0.06951246101956511
364,81.83288409703505,,101.13866863181018,9.833369695516485,10.031755220576363,0.06884294799941032
365,59.921052631578945,62.49560593218135,204.95848730044855,9.745631602423005,9.907671165692328,0.05218660770229561
366,81.39082058414466,116.79413086573857,84.97549265205797,9.976476917451546,10.159820855002065,0.06065766436744701
367,107.37073170731706,243.05086711954237,170.4729138749306,9.939538611741362,10.136656924910682,0.06110683574697348
368,68.13024850042845,88.34253520689549,103.36929650308129,9.901155989079538,10.086178270089148,0.051605109737107906
369,80.62637362637362,158.10276679841905,110.86111166778115,9.742851671557972,10.204702007337014,0.07197136398810164
370,70.91211401425178,135.43385107693692,90.34332297042825,9.83564678715429,10.068092901574376,0.06768099626589914
371,63.25000000000002,117.47400856473652,95.62978322674051,9.731717446054793,9.927768557583722,0.07011872069122808
372,77.25918944392082,131.7379839841649,88.43364442236947,9.799002880061487,9.973863481748594,0.054986771073681794
373,82.68456375838927,204.90354891642514,156.11568993137337,9.637312536331361,9.841774254676418,0.07302232749746147
374,73.98947368421057,64.9286239228054,61.25778956213113,9.881692713433718,10.046556057779465,0.05510158718001203
375,77.26383763837639,165.63807322585598,123.6503990852721,10.043835827730943,10.207296437563793,0.06318612103531976
376,56.924795234549514,167.78875324363705,121.33379924241441,9.903307222797437,10.091495349487417,0.05074421863612253
377,46.872093023255815,90.85025692183302,76.71295342761795,9.835919116423007,10.022605745709,0.06986004901589007
378,64.91479820627805,164.80055207558246,131.00688321727603,9.867917156986904,10.02203081877765,0.06685649475365968
379,69.91817087845969,158.87315571423713,132.36273524085135,9.869480394735684,9.984718797060419,0.044210028174553655
380,72.40896358543418,110.36700235153883,73.84222924681042,9.772815204707307,9.978635006746975,0.07044028816356365
381,75.66355140186916,248.88359456873067,156.21948373282984,10.104044559219295,10.719700302325194,0.08754864794207579
382,114.75918367346942,94.95772710749888,73.70856184024987,9.80810157932807,9.974628172636063,0.06234862813420943
383,51.73749093546047,176.66380420474098,123.72869944866827,9.715293089364321,9.859113975602344,0.0656637595458663
384,60.18691588785049,96.04447767609626,92.83215588633242,9.666585561946713,9.810925522035804,0.06090567908075019
385,69.5111111111111,148.1279079380336,97.19914561291638,9.90308554853516,10.067236137190145,0.05661574958920012
386,112.23952095808384,137.15931680940173,167.03704386235276,9.907827734213129,10.313174567543788,0.06714071401163774
387,53.885714285714286,225.09675788596817,139.64962084050376,9.039856310060328,9.342104760933905,0.07276837507682214
388,120.43636363636362,206.68886173011586,136.14377248969572,9.7998171212163,10.022445146535942,0.06513136173834091
389,75.65952732644017,94.42677222263544,70.63352739774352,9.639613073488007,9.845313658383443,0.05918560305684434
390,68.47148936170213,70.8466017374732,49.60336832967674,9.81151276950387,9.975545552135447,0.05867851183210666
391,75.84730538922156,286.29105123179744,166.35461655315578,10.159175860085856,10.438100928895073,0.08107291478648138
392,71.92207792207792,112.112040431615,140.51752731285362,9.869706490639595,10.086449824582177,0.06145552788241341
393,73.40307971014494,165.4999910870605,117.53525821331642,9.89955846578422,10.047679708553902,0.05819213661488865
394,96.40449438202252,147.43549035135973,102.31838264990503,9.86293702551837,10.010490385097427,0.07025647731926003
395,134.04549950544015,166.16410000354662,113.28498319687573,9.776346888042035,9.962775082111836,0.08117962886422571
396,64.29864575908768,118.19869810068116,77.8374548824128,9.892573643102974,10.063161669704893,0.0770643527920829
397,64.28688524590162,143.96614892909338,103.44981361491352,9.574211086562157,9.808539352552641,0.07143022429765634
398,73.55047106325706,54.70408504832488,31.80225814220518,10.030059169278113,10.26869176068793,0.06282260324147577
399,50.30409356725147,126.44103413976366,99.38019192356433,9.65118486758174,9.814477655060076,0.05112030837421828
400,83.4,124.29525753932525,105.23644397330442,9.948410824370878,10.149757079285735,0.06664674618796741
401,105.67252747252749,230.39892180929638,132.69991926682167,0.0,0.0,0.0
402,87.80205655526991,234.32788514217717,178.25502138509464,10.095694810773859,10.77930768038317,0.06983808641987174
403,66.99915895710683,119.01613355823051,95.76379140281544,9.847527178130436,9.997846302226588,0.05598023939619376
404,81.00696055684455,186.09284442457883,142.37714505728115,10.000064580344256,10.386895015456652,0.06682112090234536
405,60.0861204013378,116.15636937621265,95.37133920683725,9.91417669078252,10.07950802404236,0.06582848201238502
406,114.67992047713717,32.83882115228534,20.479771757329363,9.904230718841378,10.382645655178367,0.05755637398289111
407,72.98076923076924,101.16585469886456,81.66710870770673,9.873467313512222,10.048597042685609,0.06632093580008507
408,64.46037099494097,118.46487841598427,94.51868180923226,9.993886777338496,10.152190225880735,0.06885719309209122
409,59.367765567765574,167.04091553009363,131.7916507274455,9.675999694614696,11.158756948038658,0.09671409185385223
410,83.25765306122449,226.0129017753691,178.77477180187446,9.745223241182307,9.91124531122251,0.06203994550095729
411,54.45,154.5453335043573,128.52208028758685,9.755777687941093,9.945785558709765,0.059532477025962274
412,86.23054114158637,132.24129222803808,95.90759551780445,9.7947196350956,9.95034570599241,0.040718568645660015
413,65.20422004521477,79.60874435607803,58.65149560721307,9.737511131012132,9.946293656193296,0.05878109159729022
414,106.37080291970803,245.34412798660065,193.42357784167237,9.859716535137599,10.10173144931839,0.0647299487415848
415,67.95203836930455,121.00639956102087,94.86071478515859,9.993332595516877,10.237762101278102,0.07128344196611992
416,71.45004128819158,89.4158778099484,92.85274941416263,9.833131566575673,10.56289529836133,0.0788387573377
417,74.25000000000001,153.30581720906156,139.27714611490015,9.838207633647578,10.018336817425972,0.0700427617368927
418,74.21848739495799,116.58404113638439,74.58009680453728,9.892348087425619,10.084481509827265,0.05283446504748383
419,59.066147859922175,165.90269138466732,160.8457703507969,9.873479561502153,10.081187234056571,0.06163200752235629
420,59.51650038372984,80.45660389658177,85.60081452978616,9.724154546686183,9.900399292231358,0.0525362009366948
421,53.806659505907625,81.7713868204632,63.627380454154604,9.807620123456704,9.983605265072875,0.053740556429403896
422,63.806800618238036,113.92544949771974,90.92648685192675,9.612638907696994,9.91358719526843,0.09276216063770801
423,73.15619967793883,120.5189536618183,87.68580764797446,0.0,0.0,0.0
424,79.80140186915887,41.92332694781903,45.2498792178876,9.978978046462354,10.206700009107399,0.06830666432111887
425,65.22156697556868,102.90184026227479,82.86486184374897,9.808023962192966,13.149104330597927,0.5013494878808444
426,113.328094302554,201.39314836563958,124.17924778354826,9.826863776896392,10.001997466220153,0.05331322654805678
427,71.73475609756099,119.49807592645234,80.06287357612955,9.997013366241719,10.178232222867218,0.05847160219494389
428,67.8103448275862,96.817776394592,71.68905337116752,9.944997552076627,10.210832431728587,0.07193860612557855
429,86.5437636761488,186.78866139178874,159.38029650283073,9.725723760406787,9.966663744477477,0.07544292703865813
430,47.864864864864856,39.52569169960475,40.7176880346018,9.720761232761543,10.570971238528509,0.12319923140164761
431,102.72180451127821,283.3322653018363,143.65768321296554,9.86493593243464,10.061936895182706,0.06612127553149137
432,70.06153846153848,76.54117284994892,57.36375215498673,9.921288536930765,10.250533989804675,0.072733449409679
433,61.03846153846154,108.89126193220461,121.57763296665402,9.791120902084408,10.003825332843576,0.07105565333473268
434,93.22062168309324,87.67222534711001,65.20949985489213,9.669303218922607,9.84404353111937,0.05723966755232379
435,58.29310344827586,179.58955690528316,119.77006916003882,9.739172118453341,10.000939745388559,0.0671108507421689
436,93.15315315315316,91.48020337784499,67.86384832823533,9.814568037506413,9.977178703606608,0.05281838604645883
437,90.5606060606061,90.82603987304299,64.29059527812143,9.842990344415082,10.07631845162655,0.06501120957818518
438,66.36049601417183,89.3274322531583,90.72536047115914,9.802695773027395,10.060935627279223,0.08129007312079321
439,81.63157894736841,38.6847195357833,59.93010980591746,9.941602833419546,10.19972609559862,0.07244840951737963
440,62.399103139013455,155.85867664332505,139.19545434931788,9.880625259054066,10.378673910537184,0.07387169457806728
441,69.55781250000001,144.02146938134794,103.28930643814773,9.869302345328123,10.033861129441883,0.05243268301976308
442,57.391304347826086,85.81978629910027,93.09538113291602,9.781783841606082,10.038219422579356,0.060210390135651895
443,111.20879120879123,142.51190812110633,103.27859786920095,9.771024109094412,9.966453484378754,0.05507384351356101
444,59.66712141882674,214.03479021489048,124.49273016305796,9.887227513097624,10.066668167142344,0.0645652586297874
445,61.12977099236642,115.11102533270025,92.33736565237099,9.846404492293436,10.065704770028463,0.06579962236513603
446,63.57303370786517,87.84485111179258,108.75308402755131,9.75799112024605,9.959160573482613,0.06288115883606038
447,99.54098360655739,115.23620345544064,178.68716719392413,9.802364234381434,10.034054713052017,0.07112800428011395
448,60.09756097560976,107.94718580058687,67.86801627913574,9.954299098390319,10.137858341243415,0.0628932656183708
449,81.05263157894737,237.6304002386011,156.49215928719033,9.758545180764951,10.008003766174895,0.06438091478219919
450,72.43993231810491,93.25130555176003,72.91717951599679,9.761516806889324,9.980348256070366,0.06560792394599077
451,115.15862068965517,251.10163429192184,164.63179088208526,9.765679809839378,10.028338785911659,0.07316596593922119
452,68.91298865069356,220.99375741870432,147.740726011255,9.849774112089792,10.279991489627816,0.0702684089428357
453,57.88482490272373,154.3246425754553,125.82138262909947,9.575395781472155,9.847264439686716,0.07327913444501521
454,58.06329113924051,146.37746558378979,94.06493841841143,9.771044724684005,9.934548609586246,0.06168966539003483
455,66.70433145009419,121.81167429244273,96.06401047153805,9.896347933609626,10.083383040640035,0.06258776995917886
456,73.99721448467969,94.82093118615208,65.42178817825064,10.027209953244578,10.213554451061219,0.06701637671086424
457,60.4124457308249,106.00188984348023,78.34921549928193,9.90256701094854,10.126362340945501,0.06399518279320363
458,50.4969450101833,163.56665372773566,91.53930466128617,9.658715063597747,9.924971548210896,0.07243555379616608
459,120.76203768318211,49.123976965853565,31.398437275274777,9.880196240403038,12.123479457592369,0.1424061353953839
460,89.66168371361134,126.06588746499362,93.99619665077483,9.783080348517585,9.950304707432949,0.06369843378444544
461,70.49535603715171,102.94742247503618,68.00257128096935,9.895648866534296,10.088098507924336,0.06203843646674035
462,79.1140443505808,177.0807821533864,133.46004385838918,9.765785852719189,9.932281276205927,0.05502655742602698
463,81.09863013698629,77.90287610409824,57.2772723257111,9.903175063477214,10.133520724634376,0.06650655410563588
464,76.84579439252337,85.75250303803254,57.60486388709049,9.731722371703484,10.011022794196347,0.06659231084719425
465,62.11192930780561,196.49179581591306,143.6129319481564,9.511576075618521,9.76899725285253,0.07338487189913738
466,56.421238938053115,79.84856037121612,80.36251473822394,9.849880642380485,10.044853388354392,0.05864688360110365
467,63.67307692307694,90.83770566768676,67.87672896524812,9.773910170345065,10.043090142011334,0.05848858482244223
468,68.00593031875464,162.3144677310172,107.10600107384464,9.777732232093387,9.959663030303881,0.05851798287681924
469,61.69565217391306,130.44611216750894,95.35808416654048,9.719861531456576,11.616402892118876,0.11175935281801884
470,69.29133858267717,189.87261710666814,158.85584277028246,10.055749329706588,10.35501417087816,0.06502188995331128
471,50.95269382391591,219.73178784116737,179.14993440193487,9.762914940607084,9.911171800248013,0.0687312485994184
472,70.57115749525616,177.28957058202775,134.83795056588235,9.880388424225035,10.066218830293966,0.06303967625376267
473,67.20590302178499,69.94090457834311,74.74131432002223,9.643532471981258,9.859609408536887,0.05735217355927713
474,59.23076923076924,101.22374849428498,91.37173558097585,9.722102263361961,9.889029858222134,0.0504786657166718
475,114.43736730360936,244.99544779108413,164.86231911547395,9.801999950686413,9.983855738159807,0.057851145393498705
476,76.32064297800339,115.76994155092001,86.38717947894959,10.05270505249035,10.201202335078428,0.050494284487358064
477,87.03843255463454,134.96499799238006,95.85225038848603,9.646091304652163,9.827940049402308,0.07151076614856776
478,111.4915254237288,80.64394532780533,63.04786060604353,9.914259132295058,14.445200063279106,0.22643215310816228
479,69.2916314454776,128.73910156609756,113.66096581645803,10.017019362510416,10.282571099514684,0.066925903181091
480,69.00000000000001,0.0,39.525691699604714,10.048252837515571,10.28146929120513,0.07300223826229701
481,59.45208568207442,203.14790896404966,143.02199183439362,9.663024170255625,10.147771422275218,0.07162771846548924
482,62.597938144329895,225.9081449207147,138.926855790271,9.709358723824598,9.943897865418371,0.07162831618265857
483,57.30991412958628,64.48440919317684,51.02620626732116,9.771612135661405,9.985227350409351,0.059829663299288204
484,109.4372093023256,180.1685682632061,180.63966082799783,9.846891934523876,10.134911556997928,0.062205877401987915
485,78.07494489346071,108.10135162862495,84.13515283281257,9.896837572255814,10.07375231207489,0.07371077562930252
486,71.85421089879691,97.99424172749403,83.41937413900705,10.179102309102,10.375792760378202,0.07150084398094654
487,69.3754080522307,80.17273562642053,133.39900201512776,9.65434513311102,10.494561826078433,0.08977839232724999
488,83.34813084112149,97.0416328238224,66.20753317892381,9.75937668653316,10.268583659620353,0.056155056437998806
489,60.35526315789474,188.43533226907445,140.47528836788325,9.7691452946917,9.909034327736881,0.05357089525634484
490,50.49694501018329,174.4474660983578,120.42023264025295,9.742767520654283,9.943137577228079,0.07006916827196327
491,55.331220285261494,188.37749652865364,143.1425634848517,9.916580592055766,10.337229726672634,0.08012417398365028
492,65.90119760479043,114.75099623321046,103.00909705705975,9.63686150215121,11.413569540273075,0.08613251705037665
493,67.41672834937083,82.81392239681949,51.27771977712479,9.809064992829974,10.160023591258605,0.0634733823036031
494,70.65444287729196,148.98791670485693,105.75513261297935,10.074985824333675,10.951307620012772,0.11162023439465654
495,50.42847457627119,176.94830063983258,118.77719607214186,9.756766289416307,9.97610429004828,0.06386803350644821
496,64.30551989730424,51.75127831683619,87.5422048849999,9.715868345193337,11.435817538410259,0.12031986793249952
497,73.21711568938194,88.24163251359094,76.60136157433054,9.676838844830467,9.843594283694383,0.06474930101035459
498,85.0810055865922,125.31392624842762,91.84708540825184,9.705656275950997,10.017616972164845,0.07221757636476778
499,39.645360824742255,70.286440122192,59.39792608807671,9.657883158447989,9.861111597750204,0.05323511710765898
500,89.41099476439793,232.32362064098248,164.02794602799727,9.667051360394193,9.939823458228107,0.07288692083536102
501,67.0094936708861,119.42580621915275,94.41439668408673,9.839682548437029,10.017952253888984,0.06385606080428344
502,75.40986394557824,233.42695492295056,180.8265416467339,9.911921822388024,10.638417228270635,0.08576020606278142
503,74.78301158301161,183.71760374240384,117.91220189866002,9.804297749307484,9.984198605125032,0.06457039386008714
504,77.74576271186439,98.42980342244871,79.92283749650471,9.838999359989586,10.010942509260566,0.06565595737225258
505,63.61988304093568,136.30285574392977,107.3461236368635,9.897929898827783,10.372848850444571,0.07348652339707579
506,40.390243902439025,93.43655567268134,79.8026445295502,9.52741335519316,9.793227308800313,0.06377858419924794
507,61.41286307053944,52.64776953222639,78.5168498966112,9.900640797862401,10.097761694861749,0.06117372122809003
508,61.824,128.35480488316028,92.97232821611367,9.699020159773411,11.226648710986403,0.10764068566285336
509,47.27551803530315,147.11155299925818,111.86890790222711,9.722697860386461,9.878342678495757,0.05824944654936965
510,81.9375,178.96018059560112,177.39967218912287,9.749228159452075,9.94399567731555,0.060381271107805876
511,70.88725817211476,81.17109935466256,47.47450329951413,9.838636876163104,10.003552608610983,0.057159410620283395
512,70.86486486486486,164.98402928098224,131.91461504046342,9.664184855758936,10.423117736122396,0.0773182567297966
513,70.89480968858132,113.13828575543617,87.4113987694669,9.854116648022131,10.067661827114566,0.06472799984482211
514,73.00992282249176,114.49749616466079,80.0732748847564,9.908002699225316,10.130347381163675,0.09319497566543729
515,64.33363390441839,142.22312989504647,141.37840147728346,9.85248556555,10.069705783790525,0.06515949539647507
516,63.81215469613259,201.85467727668703,155.7575516941813,9.921575103346859,10.069561217079267,0.0641246557357119
517,85.52112676056339,241.07431908263888,165.64283215652384,9.850683826667984,10.08176872604679,0.06947403274997645
518,49.162011173184354,158.3289846131275,121.7766211328983,9.9040628150613,10.045203578052993,0.07302319792741506
519,84.07384615384615,294.4597712599079,172.5262220062834,9.969908013963728,10.17146599672491,0.05927755170469742
520,53.46130952380955,149.3456823151638,112.96344646051895,9.801049284467087,9.979101698934038,0.04704467643678538
521,62.774436090225564,215.84067891661735,138.17883112939123,9.9994922983788,10.165427508100032,0.05730263814087692
522,97.41176470588235,81.82595565324357,81.41770154353279,10.127539053920827,11.657135437405351,0.09105342136240832
523,39.70623742454728,103.98376898132881,101.44922473896585,9.525487561395092,9.731086603400296,0.06339345836969482
524,82.72727272727275,117.83164906196109,83.52269716714675,9.799720116255372,9.989001949148774,0.05643897985929888
525,70.02081598667777,109.68286351372414,85.56987797456657,9.814719368117029,9.953718301946454,0.04766885642761343
526,78.97109826589595,56.69068502771829,35.243570747016044,9.839360005426748,10.089311807044327,0.06461329601468083
527,76.375,126.91130485714235,104.88824567801316,9.727176015781698,9.877546477704081,0.08409636110276092
528,67.21745908028059,138.69843636553105,98.86018456761917,9.631923050643215,9.862340630005775,0.06384815014752264
529,95.72972972972971,200.57097954727706,110.64888730810516,9.889122050577974,10.11724069922616,0.0617014074484779
530,48.61697247706423,164.24853609533162,111.99026371624502,9.8632459398186,9.979251162049467,0.04449419338989343
531,73.91424418604652,91.41640839134871,74.91021971258321,9.77074704749956,9.963046192823953,0.056941614394194304
532,69.688622754491,209.7718488549494,135.4027537624486,9.85586110292544,10.030624434549459,0.05072806176738528
533,39.13066666666667,161.11451869251164,151.62528537738456,9.725071944910919,9.941757926408624,0.0564081256164728
534,70.09234828496044,106.28493945240824,151.15828690459293,9.72246060476704,10.221551757216307,0.08791057111768218
535,72.6208981001727,67.96798460047916,76.46549097988037,9.869982205719943,10.073560628091615,0.06606285598383381
536,88.89534883720931,251.87923928132705,178.27835225533886,9.808518678040258,10.02328203351115,0.06247747905008298
537,69.39312657166808,143.0688511431646,108.2928569877326,9.852960381326287,10.04219446960577,0.04853774452548833
538,40.15873015873016,73.14114093075591,117.93539912413485,9.786170709002272,10.386902663812638,0.06292700921119473
539,70.51833740831297,22.82016874267296,81.47766185798268,9.693218135188097,10.15185387863095,0.07384339067758497
540,60.82578397212544,51.91274915637829,64.87226701555896,9.872212785978016,10.072249221403345,0.05744712242920086
541,58.854425749817125,71.42354963677874,61.11656722663251,9.787982059172954,9.982297312102725,0.05418065000596054
542,69.70408163265306,135.04785974724993,97.01678539470583,10.009395021391523,10.41820712371171,0.05824201772550238
543,62.003244120032434,148.36885647283435,126.45455255631299,9.734473555766325,10.02661332205695,0.07616433548645254
544,70.42268041237112,49.450058669661985,56.24175878289722,9.67558699547007,9.898335920226708,0.06647629137538785
545,71.8193548387097,149.20621413578556,88.61920557052477,9.873396707410471,10.065780565349733,0.05869018541458193
546,77.23157894736843,49.50389652847032,52.18533383965285,10.02798073013045,10.287698394815228,0.06364789487892901
547,94.15562913907284,236.71084883692387,187.0378342975372,9.741890439564932,9.951513662420485,0.06475073964588132
548,65.01675977653633,89.84309418304251,85.33912368403598,9.848232115944143,10.057182119725255,0.06021517705065352
549,55.62076749435666,179.04726617181478,112.7954741244749,9.859008560318586,10.078033203961969,0.08512617140152733
550,78.46520874751492,130.68498091209725,74.70758513411744,9.871063758509642,10.045582966136019,0.051672307835050314
551,80.592,112.39284752611687,85.80538882799401,10.022996330855992,10.225694345704786,0.05990144774155005
552,47.672243346007605,167.6080175625734,147.6922970802048,9.747816416319143,9.94999246549301,0.05601733553148624
553,65.49328214971209,177.99775892984118,115.10446878180512,9.805361189117546,10.031378234717682,0.057221815697581675
554,72.08079376328844,106.99806238986028,79.31070586161913,9.815986990075766,10.055298612589981,0.07540354154674832
555,54.49912434325744,239.88328664075263,143.3280057074775,9.728525773464371,9.907616409928883,0.056560662309624386
556,58.1764705882353,126.05801253416892,121.39733819131429,9.937860443688056,10.073121332618065,0.050630640918075745
557,66.47826086956522,118.14519896201185,113.27997433413191,9.790711642651166,9.993860275870102,0.08488860084901029
558,61.71416803953872,146.12677612838655,121.85986689568948,9.932599230186637,10.234966663727612,0.06626253288167805
559,55.87707641196013,185.34082325914883,121.8409990458748,9.791083321074,10.000401932917589,0.0694050263838676
560,57.20592193808882,264.32678060262026,191.45704145364368,9.794362584462474,9.96521366387629,0.05804564220003402
561,93.16245487364621,184.04640042002018,178.71080074936648,9.735379757431863,9.907912650891056,0.05787859462126647
562,62.5304347826087,157.49227352969584,113.37331902170672,9.81102225168719,9.980612005365316,0.0702716714813482
563,72.32876712328768,316.95665626253265,196.5760957238152,9.814523490051835,10.045396800591071,0.07232205020048323
564,68.70769230769233,121.29534272636204,91.23829921907559,10.104202272616911,10.528995537066177,0.09797816896423667
565,77.84615384615384,134.6701027562472,87.99134838486982,9.833781059566036,10.039655251642092,0.058525173959481695
566,70.74174757281554,190.00353198737278,114.08895758971009,9.88385996996498,10.083169607046722,0.05708289410805354
567,139.26605504587155,46.689677724791935,28.593589478538465,9.748285397455923,10.424528837019155,0.14833949102205676
568,68.02816901408451,223.05295093896294,132.5383237972978,9.710015639228716,10.782928494546386,0.12442270764612558
569,68.26446280991736,108.9390070783686,91.09570726599198,9.589416279058879,9.811107966500543,0.06168165655083325
570,71.33223413025556,94.19433660858778,61.39135976393136,9.902059539954525,10.079035329680243,0.06001103471690438
571,60.97229916897507,96.67359496478788,84.86514965821507,9.79446374696023,9.962341246522122,0.06467979906587225
572,77.8123370981755,115.98693584755605,91.87041603222315,9.820582006538023,9.974596099419044,0.047795531853165193
573,83.76569037656904,125.80208733091246,82.20752452024946,9.690032772987093,9.821170204276086,0.0518644095668788
574,63.17948717948718,115.69645552109384,105.69416110816901,9.809419460759198,9.957820660507673,0.04672838116787507
575,67.61823104693141,178.3934819749621,120.96714729487883,10.020291479124973,10.188004861514408,0.055088625227337436
576,75.9,260.18995597011195,105.4018445322793,9.784502685888327,9.982170479440605,0.06392962764729848
577,77.41799999999999,82.70015718827518,74.69940795177239,9.728691725445056,9.952851260484037,0.06935884370082145
578,64.5042492917847,49.83598197281543,57.4899189177113,9.797346865959092,10.016394702747403,0.06723239915689183
579,53.989002356637876,132.9218440236266,103.7189199235933,9.809944740487849,10.032016120170292,0.06559716666586654
580,77.2670321064996,99.38203581454032,77.64971055005115,9.839684656610675,10.00308412371183,0.06222934260507219
581,36.5255052935515,87.9157337595816,160.09808114089267,9.825584483317877,10.043760703767969,0.06622905965956158
582,111.90384615384617,149.467750207028,137.82393989182626,9.784113320232079,10.455693059031704,0.07432590311305176
583,89.55752212389379,85.38525294345013,170.2245397837854,9.832297935456483,10.082843237265788,0.060738082460584465
584,75.87831407205982,113.12031255734209,90.15831178217714,9.702441619928248,9.956932556186604,0.06852499656155134
585,108.2251407129456,126.23493614759927,91.79874293206993,9.831158088376931,11.574362537170984,0.12249800197862
586,62.80565897244976,105.53961304978358,80.99584144965024,9.819181307637598,9.982304553489298,0.06083327672462573
587,66.15980629539952,122.46587655991831,131.40416601121814,9.787948342180655,13.291666315917805,0.225601590273861
588,71.26760563380282,75.935726623296,53.66379935287561,9.75803470224139,9.90659145332589,0.05648146304536431
589,41.21266968325792,155.03251789579767,119.48851875637061,9.773838917610178,9.956604851848562,0.05684119877628481
590,66.0377358490566,141.21086407969005,98.08281960037132,9.541109510331143,9.85696804614654,0.09409499103660274
591,69.16260801256874,271.0832497174289,163.368493923029,9.718392746191856,10.00006141074682,0.07064019793423976
592,66.0,132.70704500624782,94.88398835053373,9.801798056917312,9.998605150436374,0.05414854328304602
593,72.3004694835681,218.58563213864775,141.82032251845166,9.706600645199886,9.903512767294345,0.06622880544737533
594,71.2197962154294,133.65116833951393,112.70548020381085,9.868487586710891,9.99391584815549,0.05402684381117925
595,54.941018766756024,139.26901077848825,94.79340988178642,9.66681334920813,9.882762096221661,0.06322980241775142
596,54.702702702702695,139.81606860022728,104.27763893499728,9.841155898421114,10.06516138760741,0.060424321429812855
597,92.10604453870627,191.3818739801011,152.7883394499333,9.83985410386066,9.974852395265868,0.05269935232820325
598,67.12756264236901,158.16791099598103,113.81190661511937,9.819935201550646,10.0082526274953,0.06434384798906935
599,61.73684210526315,137.66313720039895,100.59664102666329,9.785063996408091,9.991283631178668,0.06996019598741526
600,95.36600411240578,81.93408808675973,58.306131121727965,9.695869844032213,9.987048325232617,0.06265582636450621
601,67.43608340888487,95.6297832267405,81.09107275542269,9.88542242389858,10.03280312974111,0.06161001055503932
602,68.02754237288137,106.14520982952698,111.83745123755958,9.849061886815687,10.217112166200872,0.07202667740605222
603,73.25570032573289,156.56561968934673,96.1466663231769,9.89457743748622,10.083263157811023,0.05565780403717464
604,77.43087557603688,121.90926068214084,90.01525992229551,9.748033864675289,11.392041999662395,0.08492912247246563
605,51.05147563486617,172.57163237720337,95.4164593538517,9.6120150979489,9.826196876496795,0.06553309551323645
606,66.32770605759683,103.95081579749339,63.742125312996,9.845910830813448,10.04802103871603,0.06623275086118453
607,72.37187127532778,178.83175561989685,118.07783573124426,9.7180262996723,9.887422175675328,0.05575918564997215
608,50.64888888888891,133.59475947877812,111.47894925545282,9.624510075689843,9.80951253853918,0.06515090515520408
609,67.4111842105263,41.38235812957185,30.179370704272106,9.769381538220607,10.031756005354252,0.0793697300400345
610,80.74468085106382,125.96392079033558,89.78511218656557,9.903319638876146,10.148728792007837,0.06707412799344517
611,99.46511627906978,81.16694745805687,63.33948785576694,9.791837840452143,9.972670082308884,0.05947064676347848
612,71.11627906976742,143.5716217558553,100.60318418399314,9.67757696863477,9.83511260866516,0.05926309733286914
613,66.88948787061994,242.90976486140826,172.58043689306504,9.866135769611372,10.025545562654848,0.06397530954422362
614,60.6098003629764,204.57924406026135,134.29076062431807,9.624845123695975,9.79743580383976,0.05553740740548669
615,64.90758620689655,123.84015902576914,87.62474311514295,9.871603082797979,10.037147050824153,0.05608510518504724
616,65.09941520467835,114.66992875842698,94.88139365081494,9.839992193209305,10.31354069788962,0.07189837109959016
617,68.18669690098261,115.32121915865113,84.00914160937968,9.881851801467011,10.037550130587693,0.06989481407940933
618,59.06614785992218,158.9596986402774,115.97945257803326,9.96497926098781,10.687889823770506,0.08193745901273479
619,64.33420365535248,203.07137365080376,150.77096734013497,9.888121043520277,10.064162929484022,0.06211228812504333
620,103.65384615384616,365.07138000381747,206.61274055588777,9.921763088653114,10.186272085933675,0.06476635424166843
621,73.83050847457628,124.89037182223981,91.0544718793667,9.94579239275339,10.202149289164169,0.05943351906784971
622,74.96062992125987,95.18581307966913,75.72351704802765,9.919736406288747,10.113133513355283,0.05446391075384446
623,57.403361344537814,54.89051974936071,83.55861919385352,9.777479572956265,9.998315676789653,0.06462014454150009
624,73.17000742390498,86.5367857088711,64.39987189149987,9.829867766811887,10.005231547536452,0.05874513069794579
625,75.79638439581353,138.62734988861405,96.24242129977124,9.660420757273206,9.8706010358297,0.07386431865484493
626,83.97936624907886,91.67220247406829,63.17348158067242,9.778389776718821,9.951407797520078,0.05807101893943256
627,75.59778305621539,148.8520310465203,105.25154894836257,9.862385103325101,10.082555898187792,0.056282138114323414
628,65.11029411764709,154.42794661890457,102.83037974551907,9.742225641860639,9.86901551562005,0.058999622121198844
629,61.669980119284304,176.25388529720573,133.3220466947056,9.799117198849393,9.955252229525755,0.06385181398136902
630,59.578086672117735,151.8625466135465,128.58248382964297,9.744300532475787,9.926045439800154,0.06384957265368517
631,74.23353293413173,76.66257050410805,58.16812576371685,9.79582682080508,9.98620288321573,0.06739487303089857
632,60.404844290657444,118.5770750988143,101.81346103178296,10.032630591727145,10.215242803730256,0.07017287742437531
633,72.89176829268294,126.8835329456873,77.31953323547974,9.661666423136962,9.880046226853484,0.0708808530023229
634,62.496208017334794,176.29015545735925,156.77303687962953,9.868885461275257,10.054936246986365,0.06577935124956959
635,65.36842105263159,131.94038899545933,121.0082747425175,10.02163900741715,10.202143677011858,0.05798506864322664
636,58.277879341864725,149.90931025382852,122.8759551586634,9.858229734437227,10.914627706534029,0.2472931163003712
637,49.51312649164679,162.16776844652404,108.19618506968631,9.763254445214857,9.950129922205301,0.06420233231259564
638,61.17525773195876,64.54518426306133,91.5148705921768,9.868507442828141,10.102470450713298,0.06484155841677096
639,103.10115606936415,38.54959803939496,50.72393860903278,9.875587516983527,20.571859830536972,0.28139156914439595
640,92.17375886524823,91.04256820501895,69.23402283482768,9.76305815126984,9.97501885488636,0.0598540115788443
641,81.36407300672433,115.60566741354708,76.07777693034537,9.902674078286138,10.171244208538845,0.07639823454058589
642,57.70175438596491,207.02308168135932,151.1477859835522,9.866647753442031,10.06551243506147,0.06624183161181166
643,121.97502014504433,80.27498185134733,54.45246371706412,9.863757437158263,10.094594551395925,0.0918153893069504
644,61.030383091149254,190.42699089110621,122.2504997349476,9.806517591922528,10.05880948757323,0.1438386905113358
645,58.78025169409487,71.4169846705774,54.40169805731546,10.033599594040787,10.259528890986278,0.06087833433747645
646,60.774021352313156,77.30279531860847,80.99880111303297,9.872174801753529,10.100898794729245,0.06817763843750013
647,52.89513513513514,199.79611502789655,121.48955424964369,9.58512348654771,9.783960843144682,0.058868099805051255
648,62.33615384615385,61.648686891361834,68.86141603614995,10.158197793401138,10.327931621596347,0.05639049390749881
649,73.50315789473687,65.90827970746057,52.26639053358153,9.699204379173677,11.232023024459519,0.10080528299023939
650,142.87058823529412,139.7444231593968,81.33437565787715,9.814773557407834,10.027714726867279,0.05842030059382283
651,69.5579514824798,129.0903685261227,97.51321541739487,9.955316149241224,10.272490048462108,0.06562930019330195
652,64.27664079040227,135.5369378050184,123.75427514522008,10.089156203042613,10.259886820934032,0.06730831497716992
653,70.62916666666666,116.25872751687827,78.27270740662843,9.862368484810396,10.119027237627494,0.06853938245619869
654,97.1890243902439,217.0059723385165,169.4480961648903,9.76343284298036,10.027090628983148,0.0736248606656597
655,73.02681388012618,108.17994145991352,86.21549862492007,9.824504893413833,10.029193663780022,0.07040457305643635
656,128.7815631262525,32.84383279995321,19.609702781766345,9.884085458423563,10.308207623167094,0.07500490080556226
657,102.59586206896552,156.89636943293,110.06517077819268,9.982035909850962,10.208959465698413,0.06842208515886787
658,96.68789808917198,189.5585582337043,111.86538891766723,9.828357504895807,10.311021866278347,0.07531526136430704
659,90.52249637155298,62.56792741924412,49.54538444182045,9.8225518262571,9.99909560445965,0.06093107724495442
660,67.68152866242039,100.92605007749961,81.77723522281329,9.84140395235644,10.043502389582935,0.07015414434842739
661,50.52981969486824,200.44394207255775,130.58399990082322,10.009398352004187,10.193440916214007,0.057926752847338905
662,62.22374039282665,97.96358877977114,110.25341511733866,10.007914230862571,10.54041030586345,0.09307544341955377
663,65.25423728813563,121.86969221462626,90.56775182829027,9.719525240630729,9.931480031349029,0.06481074162862097
664,58.05783582089551,167.41075778805745,134.5519816629164,9.8080273147937,9.984844880566222,0.06209800256301731
665,75.5249042145594,94.45294536001798,70.10862350638733,9.764530647060191,9.95980344348218,0.055537062959413144
666,81.9375,125.82172739197178,107.9553213674152,9.668353812608599,9.822440156118992,0.05766164217821812
667,75.08823529411764,69.54601795510669,44.20074963268282,9.677696668444005,9.879394979388811,0.05421866598025147
668,54.50192678227359,135.38673071565478,161.91083479374205,9.83212894359134,10.00648579266453,0.0628940157636452
669,62.90625,137.8685740214516,99.55027104054237,9.650903106431793,9.888965373557031,0.06788005587232675
670,56.45538461538462,208.61449421335632,134.71111788126868,9.871456179991059,10.062334429804652,0.05889679008460925
671,112.083984375,276.4995748511243,156.17336901950202,9.858939759507459,10.051994701700313,0.07200846120285169
672,75.7932489451477,135.55308143559319,99.87140046357102,9.938225987569764,10.673744908190248,0.25162920826850765
673,67.0028943560058,137.01933994623724,100.1683274410681,9.911154164395494,10.17765448422291,0.07820225601149011
674,69.3585196607556,184.09642571560704,133.17697019902215,9.808376160987795,9.943971206438139,0.04836682042119529
675,82.25903151421984,89.51846975459388,75.17285589843742,9.989266009918648,10.149633820060359,0.057208509151282616
676,59.45386064030132,165.29768910854352,120.10290522351075,9.657639435754719,9.815994479646362,0.056886781691124176
677,99.71739130434784,194.8942370928887,160.46885737587044,9.818320316183454,9.997216903426507,0.05720904846611595
678,52.46960667461263,60.720519745996924,91.63274533990246,9.89240990417957,12.010238403729419,0.10497621691075776
679,76.93081761006289,78.34036064467205,52.2962249565712,9.732564375552208,9.896750287365917,0.06755248500392037
680,56.562052505966605,129.9020540617476,84.27173726243967,9.914911485335779,10.269679463196637,0.06900940967167528
681,61.17884130982368,170.5525472711021,120.39024635386568,9.918515949838973,10.136501663036533,0.08072160472999199
682,57.265210608424354,95.68088994636426,78.32281723296991,9.552163316395236,9.74818350936163,0.06426582923981997
683,71.41498216409036,132.0168890214451,98.1667811911149,9.756710718754134,9.884148461222747,0.0505905240774388
684,71.4308176100629,118.79153882261683,98.94777541857117,9.638689881016365,9.824703845404226,0.07091134857012957
685,60.94160583941606,174.91328125628132,140.4586438066264,9.634248962670352,9.811326151327696,0.06082346536722222
686,84.33333333333333,,0.0,10.083339601553735,10.29068092168011,0.05994746156032673
687,66.36724960254372,72.45178964357056,54.380407940762076,9.8679844874645,10.070216157337216,0.05018690504046067
688,67.43728222996516,137.0477325317085,105.12224084659228,9.997684345268567,10.404539194130724,0.07406099892649329
689,74.96296296296296,,85.57563278502359,9.965878094856974,10.16262344139966,0.05867087606836399
690,74.58536585365854,99.46730037124844,71.17733347501786,9.76042446765532,9.939776007946184,0.06893358364023854
691,79.65517241379311,94.34120813278341,70.66962325087302,9.804403901630044,9.991207628873502,0.055810556606288496
692,70.19612068965516,115.19129044037288,78.19834310321865,9.685399456952878,9.894224739408358,0.07283626000608766
693,61.54054054054054,63.02900626708444,66.62476951036275,9.825101686788189,9.994498479183608,0.048936034033525595
694,49.91991017964072,155.88595743236638,122.1596844737135,9.92355276964514,23.225940116498744,0.35278885166509216
695,55.877300613496935,128.81185607971278,92.46158661145057,9.761457103617243,9.939884300822659,0.06465160903003032
696,114.27854454203262,125.8405390430288,83.25192480339021,9.832030808704845,10.109093899109855,0.08050935447882622
697,68.11538461538461,44.19106674900765,113.21252205400012,9.943335143451158,10.164951345886765,0.06379485808022385
698,56.43996901626645,240.35154438808692,150.12817879258145,9.81272803783763,10.015093890505902,0.09122354665884017
699,90.25945945945944,141.72671256929567,107.67749955998345,9.817748828628886,9.992215024349843,0.05444244031048906
700,57.0840197693575,173.54991454912994,127.11065452896081,9.87033155815272,10.00070873646946,0.05212176525563957
701,79.29850746268659,194.97560720617574,168.26272643423306,9.79281586715744,10.085147829191024,0.057329044964031
702,90.5625,254.11464455844413,195.5108691687994,9.904674372427387,10.111153405086101,0.06248195454459585
703,78.2192448233861,158.6425274244234,138.92455822454156,9.913953254664728,10.143976599165233,0.07620733309286196
704,38.15232292460015,162.9686018030696,109.12005724211642,9.67719493099855,9.878819759606033,0.0626889529965107
705,58.26666666666666,38.88295469074818,55.85904548407553,9.859180212714662,10.086976734393941,0.06356722483921905
706,96.8936170212766,39.525691699604636,122.1820618642385,9.797580691405283,9.940945494183266,0.04533430479273729
707,56.98906644238858,162.00238788841176,119.07294476940831,9.639439620215565,9.804250142292691,0.05900527917442764
708,96.65271966527197,84.65338343428371,62.4997891715115,9.764095257964325,9.90534038288089,0.0482069435835998
709,85.00741289844328,91.85216372698963,72.92086912830595,9.80923358301687,10.030870023371671,0.06796084937193513
710,65.1437125748503,108.4576032521795,116.42340029075253,9.780780635020193,10.078744402511038,0.07820963725650146
711,66.48175182481752,206.64541688218864,122.71367595650298,9.894801177974921,10.096337744531032,0.0726715805152971
712,64.23608017817372,146.6111254926645,132.78113914901562,9.763758569065827,9.929370932920202,0.055433442437211135
713,73.16037735849058,98.20468221616903,78.13930319815921,9.759659159562156,9.969300379978353,0.07582074252741475
714,63.1039260969977,127.95075493778022,116.21535900218922,9.854317227921511,10.044663646700073,0.062325384522410494
715,60.483383685800625,115.35334923547248,103.77596219688782,9.769144732274283,9.960443828946003,0.05528747429537167
716,59.6906906906907,140.55732782587287,106.40171091420979,9.860798011521045,10.071354294556208,0.06578733775029745
717,39.26752893124574,84.22349468828983,63.00423432871983,9.786256537665706,9.984957558736419,0.056683650954454275
718,74.7089871611983,88.51594452618703,64.36700184722568,9.849642685028,10.05463928394079,0.05213348537192846
719,69.44363341443633,86.008568428961,72.08752848504658,9.726175271406216,9.93795458112854,0.07256333226766513
720,115.30163934426234,204.65776026797067,160.01420542249298,9.873820468285002,10.209673671350162,0.06736040723589094
721,73.70364238410598,120.07041826831659,89.70718400050534,9.920123962757886,10.183374522284959,0.07060138495754102
722,68.75197699496766,101.62154104769215,83.71392837252486,9.89900012323977,10.108614516917166,0.06951010105196712
723,63.60335195530726,92.17706971614928,101.40648961735894,10.09268208903328,10.599079148109269,0.08604540021546966
724,67.59728944820912,117.0854801865504,108.93567267198071,9.64919624819104,9.848680654630574,0.06822280106357562
725,38.92307692307693,375.84974341257873,268.8037649947716,10.001792306974306,10.248558570363729,0.05961165591124467
726,64.63100436681223,181.28912991260688,144.01394278570274,9.921053385051723,10.265768518999046,0.061421170912681705
727,64.33092485549135,124.09229662457453,92.63610905014937,9.927673511208015,10.214098837948598,0.07200726593110586
728,65.95686274509804,100.43804279455621,82.68354373973132,9.797588390458273,10.049918942043616,0.0670623667995418
729,70.20318423047765,85.81978629910029,69.44993718382302,9.765449965563862,9.936913307229341,0.07028713107013762
730,73.17730496453902,89.0344753298837,61.85343373014032,8.959808102175455,9.148843702301427,0.0705796617014037
731,55.787234042553195,81.86993628294604,56.013779978515736,9.815694619221649,10.004302081586435,0.05163754733000353
732,77.61421319796955,447.4200490905708,191.48001933952938,9.992718962865242,10.20260779157882,0.07397066171920022
733,70.01144726083402,128.00135851118446,90.45494942084477,9.718996804958358,9.869375787897793,0.07166553866963632
734,70.64905660377359,223.09143156565113,122.47333103699613,9.851927578956643,10.139988445431362,0.06495829218031907
735,61.60000000000001,167.52509237627783,134.73048000809368,9.78758330929943,10.02153198884969,0.05780026348767305
736,88.3389355742297,140.9446835454182,96.17751141898785,9.76375978626292,10.97612661353181,0.12045212557342784
737,79.71090047393366,150.52663644321277,125.23534734275829,9.778201374680954,9.976904892295304,0.06572321537014289
738,61.129057187017004,108.6869692108785,97.79370846618454,9.697958414868218,9.90882270031468,0.06259289723023741
739,88.99180327868855,251.89664365338038,170.75258692097586,9.824470449101701,10.021623615449545,0.053774090386164076
740,45.375000000000014,319.1561934891123,242.98943676172064,9.869881981170868,10.509818185958634,0.07688906171754072
741,55.7851590106007,123.9666764545463,111.88594307652531,9.85767857808394,10.17915747865197,0.07604806084876248
742,57.54907749077492,122.49759859386405,93.33380357546065,9.960378222121378,10.138690713524316,0.0630378102635158
743,63.75255391600455,105.07194749605738,124.93641919195663,9.64770478023934,9.859157821513799,0.0625562670431503
744,76.29573170731709,45.71989823676377,31.23791621369523,9.879578253731436,10.038482792107823,0.05706913959036095
745,63.95539033457249,151.10700686882552,134.99759674882463,9.922668222003967,10.124192256607788,0.06529609546572451
746,76.04081632653063,88.78296155663556,70.52665478229194,9.847486506265355,10.3566529954063,0.07628479212026727
747,63.11850311850312,87.52264338508483,72.31689511277465,9.85237963178207,10.1045765666998,0.07405627184059378
748,103.78438661710037,272.1711272624814,167.37182439232782,9.789492905013319,9.943083736572168,0.05728935153813171
749,58.18118466898955,128.48000875446658,99.50109170720222,9.848947867211841,10.068135837399671,0.04700336830283982
750,74.95098039215688,227.8508989954395,177.41249792738753,9.784877609255869,10.041321596761842,0.05366048697844985
751,70.06153846153846,167.69330779127606,162.4351515933854,9.834247064026691,9.978665991137078,0.055934878404139146
752,77.11764705882352,105.50472581058607,130.81098333482413,9.765577499621541,10.009107218785893,0.07185724572589988
753,59.2670025188917,91.7754248002659,113.88454761373252,9.783497805410237,9.96358329207593,0.051359771530096125
754,103.4106280193237,236.84533503814936,164.61231647230895,9.833034991112319,10.012534933277028,0.055185286683324355
755,79.53592814371257,50.318699582866934,33.23306373701223,9.824133128680156,10.301876499445745,0.07404104031796838
756,72.81918819188193,49.13688225360167,42.72869967332076,9.790318653620844,10.010939006163223,0.059146957238252376
757,62.37974683544304,163.83021070099022,113.63346471255963,9.850136585705254,10.044633008395007,0.07225819431940231
758,61.050000000000004,91.28067497069182,77.52078861885157,9.717919204650704,9.919379492513194,0.06040917520015264
759,39.32106339468302,81.419502242458,57.73534048836247,9.572455515424478,9.722362866043564,0.04966011191519259
760,113.22463139635734,63.22185426368187,39.69899820448928,9.932909517354174,10.879037027545593,0.15828914078790965
761,77.06428049671294,132.37066958453056,89.03977383697637,9.814184630048917,10.035870394026121,0.05765922293801106
762,61.54529307282418,106.87688356632624,78.99217127589293,9.891819666870166,10.06096123639565,0.06149471022874487
763,55.223804679552394,172.67030592357094,133.16647013499002,9.829830772028325,10.002374199922128,0.060765029417632815
764,79.05056603773585,159.60967448242226,101.73930583396148,9.78060806517734,9.985382240793802,0.0661243996869032
765,69.68260869565216,98.56275487722857,74.16313949262434,9.802394619147668,9.991975290053858,0.05987170013637203
766,90.25945945945948,207.4193724634909,201.41410646412533,9.895560391746347,10.185478594964772,0.07830229423237668
767,47.67911714770798,155.38446504088864,131.09624148396492,9.992855533653204,10.229617812357887,0.06056514592636196
768,71.00000000000003,148.1704575278065,98.11758254626548,9.92683437761671,10.132037873252363,0.06725530599467237
769,56.736842105263165,94.55983154498648,94.32594971835752,9.745950924923935,10.6961847390976,0.09322661634887519
770,51.93157894736842,133.8666279514976,103.0165664098353,9.689048283342906,9.883033084499463,0.06682377419290751
771,60.31666666666666,90.72370908749384,49.42952147001472,9.817837439204729,9.982618007286856,0.05181484443144614
772,58.77053824362606,138.46819164928272,129.4546251352127,9.775230042099441,9.964899375322968,0.060731152165836105
773,88.2171052631579,162.18946458260965,129.2482456910429,9.830240296955246,10.081046665704292,0.06816015510437717
774,71.71653543307087,71.95723239784975,88.3470542612702,9.832522964703813,12.009011068003991,0.07925499762097786
775,64.95238095238095,70.88959711364751,106.54068441156178,9.923803335591112,10.14582353958414,0.06952559199653402
776,65.9544827586207,74.79285669291069,97.96157974418382,9.687408680764806,9.912576141074906,0.06194282087661333
777,86.97366440933034,254.03072435393906,152.664838841312,9.68833701753872,9.92420836775452,0.07739461636023308
778,66.07605877268799,179.02803909562158,119.28591073269752,9.742040659566312,9.93446295184765,0.06717801268561237
779,83.34117647058824,152.4225049314744,79.77073151809088,9.71128225129432,9.94869901343838,0.060736899629319184
780,60.82352941176471,135.8022625223646,100.32843398550571,9.864176627375583,10.005221032242058,0.06268755898017207
781,62.75746268656717,108.51530125996837,103.24509165439886,9.828662607767992,10.040510163931405,0.05822681597036736
782,49.39674593241552,230.9560851069177,170.73215761189726,9.691228452428575,10.628882974853944,0.07218140290967102
783,74.47619047619047,92.15068852769501,62.872900641664536,9.912385945197231,10.497574074410156,0.0856928948012592
784,65.43103448275862,69.09149197431827,63.7877124474846,9.726327945298499,9.881924607126377,0.044324093079078745
785,116.52697095435686,202.18721018738876,146.02011430267515,9.811650376365758,9.99785725478943,0.060470985250360966
786,55.26686884003032,172.80204139435222,126.27761589988091,9.801627986884522,10.051292362349397,0.059491848121206004
787,60.22107765451664,160.6967810539368,120.19878794090397,9.959971487276624,10.183272262594388,0.0800339847473776
788,75.9,232.72097144473898,147.89159631517552,9.745688627547898,9.987568798697843,0.05665445285420941
789,91.30827067669172,238.5616055819041,169.9346197818166,9.520688411301704,9.710091358212244,0.06269452805583067
790,70.9019908116386,97.67839577643247,57.86849883176595,9.794161859530462,10.11387812116286,0.08535347104932113
791,39.49432955303535,126.9494179520895,76.36820202203106,9.899953902179716,10.13163057027976,0.07686160284662459
792,69.94322789943227,138.2064717778751,92.40159813830353,9.656329093048807,9.855715396731746,0.055486705943867294
793,77.89017341040463,193.71992065164025,167.6646277576678,9.781997969818669,10.01786795227412,0.07236157919254285
794,38.33333333333333,65.17246026814685,52.776155598183735,9.585038847917348,9.813139428933848,0.06846309727285638
795,56.98198198198199,99.16237206294404,127.89722318518061,10.009801653715495,11.232867468557277,0.09023087939053598
796,79.68503937007875,145.6103552594876,152.81421677646884,9.811265210363628,10.030109620337633,0.07279677821616697
797,66.39819004524887,110.20217144941978,83.18492310027055,9.822069819308602,9.986535922958492,0.05334746174400145
798,77.03283582089553,92.69596363287407,156.79809625749698,9.848905602576155,10.732348532815978,0.08362858590878038
799,71.11351351351351,150.13817956305292,107.37739973493646,10.146742189023067,11.521963662479976,0.10615110460868556
800,116.76923076923075,260.39002516997004,159.0410703879361,9.85907289921032,10.098614735526969,0.08137225271977622
801,68.91176470588236,264.73845234488266,137.90434845414865,9.867995271228265,10.075555369725429,0.05310922440395992
802,76.64516129032259,95.07316905975568,58.78828954864978,9.865936734373365,10.308149648861392,0.0723094575210476
803,77.75121951219514,287.44959458855635,164.38626433952982,9.72259035568427,9.99333540330872,0.07583890186747223
804,49.890595009596936,156.55603928823837,113.36617542700274,9.748270643645236,10.226940238143417,0.07575235337469322
805,106.19753086419752,109.02713129789927,87.61424636789943,9.711238596095322,10.972592512207315,0.20259411614025755
806,78.65284974093265,223.24144263150893,154.55505767602492,9.787794596315207,10.83086119190937,0.13551528239187144
807,58.601336302895334,172.7505199410317,114.25686615324507,9.72028019813242,9.90146124786625,0.05848253997616343
808,71.96444444444445,76.1509859099907,59.17262631918716,9.784542287406817,10.055140172665757,0.06530043876536491
809,69.7878787878788,146.70106837663846,110.87684752100907,9.848213538439307,10.003800722147723,0.05029373653173655
810,66.30344827586207,110.36303797214809,72.42311290005911,9.688774077033543,9.84173156757551,0.05599417440246366
811,55.82461103253183,153.28631960209736,117.56905625409125,9.69650688255295,9.899399543155747,0.06327511156843574
812,78.30952380952382,214.37602233561233,198.05677405185688,9.938465573700402,10.267229895344023,0.08689194427487033
813,57.92592592592593,146.66764481839266,110.8790915751843,10.296203913194715,10.51923664950724,0.05975130013620454
814,74.3076923076923,188.2173251736751,135.75172535484256,9.823879267953622,9.992524657714757,0.04421587962974693
815,51.88929001203369,159.51157892545214,132.9632645833423,9.77867817578763,10.134280713103479,0.07102774201685133
816,88.33482542524618,120.64511940133215,83.45655683452847,9.730021838961873,9.98574641367154,0.07042837899106769
817,59.635714285714286,113.3965107873002,84.87971118230483,9.731856618285475,9.961839355850131,0.0586578665036406
818,67.35974643423138,95.49144283053505,99.08609853436141,9.791636370407897,10.599930938400927,0.053501773219121224
819,67.75345377258236,141.41141359682467,105.30517063702595,9.896560506808424,10.262578324813324,0.09981952869544333
820,70.45569620253164,108.84526773292689,91.63830760643954,9.793493440351812,9.959032511926683,0.06035974011120333
821,60.17531305903401,146.15379411440435,113.2752932467383,9.718765874974395,9.93575458350353,0.06830990284963363
822,55.4559585492228,0.0,72.22703201004467,9.806915036986299,10.005115878690294,0.05656856683739777
823,50.53983353151011,192.96203578230316,132.98590966556165,9.881265639071735,10.094868006411355,0.06905978718059011
824,85.70218772053634,100.51914539855098,75.04516234121985,9.650128012186919,9.846744545327015,0.06004781689614027
825,67.61852861035423,98.28161499899505,67.19266391713317,9.806503514324223,9.962426161681424,0.04773131512218195
826,66.15137614678899,145.94893309829115,99.17306805973742,9.413593337025116,9.626754596758735,0.06762054084586426
827,72.70537010159651,166.35708484083833,109.55304900974127,10.143040664796354,11.076258021632588,0.08284112770445971
828,63.02083333333336,123.32635379731431,99.61279017848497,9.803808412653956,9.973107272027669,0.049209391217760905
829,92.80794701986756,110.27495956027937,87.21101114621925,9.786356390950951,9.947933840230489,0.05469153155529068
830,58.853503184713375,98.34937019898193,69.48355376309314,9.992453490161719,10.180933854954821,0.06430532203735045
831,75.54028436018957,106.10934236964383,62.083276877359836,9.801235440732622,10.016786542540451,0.06971310517597101
832,58.04859529233106,173.86362260003514,129.34410450856072,9.919557556241113,10.098721395978828,0.06271372705988482
833,70.25644916540213,157.83304337174786,101.03224126771451,9.895292077782349,10.076084624981755,0.06278906805485969
834,54.175588865096366,160.35127068034367,100.4574828166837,9.587458754244938,9.842818176639955,0.07175266715386559
835,80.24669603524228,179.83103819885096,154.59857315812033,9.678439751868543,9.87450780473923,0.08152811747104755
836,48.76476683937824,231.25323040202395,170.00403756733712,9.673071001780103,9.955508016905673,0.06931011109530977
837,57.91666666666668,150.0971275958421,106.16938593958419,9.896618408621476,10.089120844303899,0.061952489888243326
838,81.40195208518189,167.22518576321136,132.31792819599698,9.665068161762582,9.82995667526626,0.05575925140048356
839,81.44230769230771,184.28239071955286,160.94475946569295,9.76161287694609,9.944203173541197,0.051395308607632945
840,72.76697736351531,60.61896821435456,48.545654302666094,9.619136430454525,9.844696317467697,0.07247369182832837
841,61.54617205998422,113.37843586887355,98.10258115959974,9.699374457810167,9.882510074799814,0.052371140584597055
842,50.82548476454294,218.5647986836408,169.13146554592217,9.929367575760427,10.122804900578755,0.06394281735626663
843,86.1276595744681,238.79537497222478,123.31999974652852,9.902109137245738,10.658873931029975,0.10174065704643978
844,92.0664259927798,89.58914590231728,64.39923000233165,9.82707261704388,10.00937807560226,0.05760238793509679
845,85.09509875640087,83.90416343291433,77.77414034804183,9.894384392112864,10.475344324781389,0.10053551673081468
846,50.04395604395605,149.34538608483302,116.45368596616396,9.629782874212488,9.854246084637834,0.07005094843286577
847,67.99552071668533,132.72549575990058,139.29301832689157,10.047915547057801,10.319522201454836,0.07030671859087685
848,63.544186046511626,113.52890605806378,133.64184501276185,9.888595157719127,10.091958311840083,0.06681587284994671
849,110.99354838709675,87.32723648047333,57.29468277308349,9.907162190933475,11.048334500191064,0.15248062269341453
850,55.1522491349481,168.53811569613472,133.40896026101524,9.875999033877637,10.077099799544317,0.06985006056309732
851,66.97529069767444,159.89516312623024,109.6637732554034,9.853950753356349,10.118796802715783,0.08977979772359847
852,78.43,180.62139604186888,141.1075897718416,9.98931441991732,10.237937009239857,0.06723942423610654
853,76.71052631578951,168.76543228355706,136.8299632983903,9.905739413503758,10.029576083673664,0.049684572763835026
854,57.82857142857144,167.69330779127606,126.15756259687457,9.86631030935086,10.036928070404398,0.05590651436711842
855,79.11400651465799,227.2297605028428,169.26894775816103,9.908862998763592,10.181764744235188,0.07607330386479101
856,47.16949152542373,230.72027119500112,130.35111137058612,10.25962780449277,10.484979628561792,0.06722621684484113
857,63.66454352441613,128.93734194409848,93.02608678463213,9.769650283854784,9.940183828166138,0.05458565280451067
858,82.95161290322581,129.48979642395898,105.82407593671684,10.080571253323791,10.348159230675265,0.06957258590035274
859,61.42196531791908,60.54213363253233,75.33407150833617,9.818311003068988,10.001089239952318,0.05922385611215445
860,67.94117647058825,98.78426353969675,80.37271920397822,9.780653684995338,10.26700013779342,0.0578852603418353
861,73.33333333333334,105.57142678381739,74.64909524787916,9.957578740573728,10.166972435066882,0.05872636627360434
862,108.06101694915253,217.69053546585383,180.70848127533907,9.769520281582544,9.979629399875487,0.08185536203890001
863,73.90103750997606,129.9837381374505,96.43975872553129,9.739641783274694,9.893524727625252,0.047370877332780725
864,53.025182778229095,118.57707509881423,86.9411679590097,9.8481436517672,10.069357156994204,0.08036224333184384
865,58.42609949531362,122.59384710383237,113.76689073241712,10.366548270944229,10.601737601112195,0.06434501962504553
866,78.61405672009865,201.68064765314497,173.25476757310074,9.865863382266847,10.068244384604979,0.06145080774522481
867,72.50149253731344,60.886006659083606,58.82352223216728,10.073723200115573,10.27334836573441,0.07191343700113281
868,100.43478260869566,382.7314812543214,186.3987025247704,9.853578906042037,9.98271687367753,0.042720377610018144
869,63.95057034220532,119.92706440760855,83.75402441997753,9.846925978842144,10.007407260443694,0.0694020800435884
870,65.62231759656652,146.24381801829884,101.49784557000048,9.945552800336575,10.872423745597477,0.07687052839701825
871,81.3658536585366,100.87920265540636,75.69088946437348,9.695433944495651,9.828177012561477,0.04293878850491738
872,54.25483870967742,177.83929150260624,134.36657962376393,9.782008076764228,9.980672957854155,0.06076545569260673
873,63.63567073170731,167.8795302892909,113.91435803922134,9.82328301597086,10.07066417874649,0.06293422161215016
874,71.29629629629632,134.65221658005012,134.25079301766834,9.615999154312169,9.796547478901749,0.06027158561740034
875,105.68354430379748,363.4890330758008,193.1013847293482,9.734650728392014,11.176685142521297,0.08318697728644261
876,70.65297741273099,88.78911400884878,64.12593305881273,9.727661423408428,10.866943707627017,0.07187872908241832
877,93.15678627145088,112.25429673527488,83.35887275012182,9.546737004051824,9.860242510186973,0.06961318506095507
878,67.92700729927006,88.6378277554321,81.12867435279121,9.966346551752789,10.193446322522414,0.06364519640829816
879,61.31956912028727,151.22846222989457,101.76722605505658,9.94257677403247,10.08227394585598,0.05081308969533313
880,54.26666666666667,130.51396450612464,128.4848687275773,9.395512128679362,9.618054692668347,0.05882936730059098
881,63.915789473684214,79.0513833992095,51.345379671014115,9.760204751412708,10.216906639934297,0.08346787569269218
882,82.35398230088497,345.2850506510866,171.4343752457554,10.025237000869028,10.227923715502556,0.06246796704151763
883,87.05023547880693,101.62937174383828,80.2350231917221,9.791797363206362,9.979297635728921,0.07464143180994098
884,50.96666666666666,87.74629081097939,149.94092746534574,9.789324285482442,9.97417877943607,0.05890933993658691
885,69.48924731182795,82.4126315972399,62.10795277489975,9.783647621562727,9.973230847131187,0.08575191325745148
886,70.57859778597786,119.00826588565171,83.88302861337985,9.7151673863461,9.913737140755128,0.06102316663821867
887,68.12803738317758,120.48287429321033,89.65141811063896,9.89610413647471,10.075534556945515,0.06948484472598225
888,68.86956521739131,171.12200644246008,110.90647007465829,9.937189626095382,10.237881573107014,0.060610133038698805
889,61.737193763919834,143.06055623492352,87.57544729066626,9.928682715939464,10.125482940647059,0.05630597392803416
890,51.94183062446536,175.084188316702,132.42212802601676,9.719459608873153,9.998981367755732,0.07097638751018849
891,51.439834024896264,142.86134528186446,116.57650627103935,9.827931615251236,10.077530896403575,0.074906058851289
892,62.006051437216335,52.5068113956579,49.730018303214884,9.733680181674202,9.992921802357436,0.07496182575562697
893,49.582914572864325,173.063991815324,153.63490067203568,9.910955920276084,10.123468697525059,0.0564490919311568
894,90.97046413502109,175.3246753246753,201.62332860868224,9.901376092508743,10.063037918770847,0.06582225443268987
895,58.0053050397878,187.97457807794865,119.24993860673531,9.733956007801192,9.957589945003631,0.06360698857554294
896,59.81087470449172,198.46764893316143,164.85388458280644,9.763643994046822,10.039774443314078,0.05712662217481114
897,59.27534791252486,105.50426186177079,88.49880133740912,9.860037423601721,10.075721799384896,0.07177282160024266
898,77.05503931379559,128.0390394167921,92.31449349847418,9.882820765709054,10.057195569537322,0.057566500679308824
899,72.24691358024691,288.06588328336153,166.76658054420338,9.877768589027488,10.005664024152082,0.05317178244540276
900,71.73475609756098,85.86539873192416,86.71089193379727,9.861571099908176,10.068645295377266,0.05926212851966961
901,81.18336162988115,111.1585217266117,77.02880933291826,9.604777333878914,9.755202096598111,0.06530210559742025
902,58.68648648648648,111.60745675780066,94.4349681715118,9.706007291927634,10.022616242764109,0.07122782130604673
903,58.962680883472956,104.1168205227881,105.25928239203151,9.899344276062195,10.062435998128404,0.04933142824234174
904,56.17974180734858,108.32804434519078,110.28976809168189,9.919404841519636,10.133949421355275,0.06855187067545265
905,71.13832199546488,140.18502674292859,85.17158593683214,9.514090915122098,10.746360102294087,0.0941106295717012
906,61.204042348411946,138.30125383051347,121.01481660971517,9.856180116838603,9.970615493248848,0.058175992764252074
907,39.497890295358644,107.52150599790866,177.3700893538491,10.022421731577312,10.38073274455269,0.06582016255913696
908,49.9068493150685,115.23620345544073,148.29452153478826,9.67845873466935,9.871169484134729,0.0636349138679685
909,57.28301886792451,170.85761148087698,127.19207395807271,9.89108610143084,10.158455555533962,0.1357577762859634
910,58.58695652173913,179.13135356017818,128.17607012553523,9.987897859409003,11.019072584808036,0.10394697228634452
911,69.75609756097562,107.34391353500644,86.39481701538207,9.696422215508848,9.886213346446496,0.05390284178073237
912,59.33901918976546,130.31717281473684,96.13793177544028,9.755028262763938,10.097141855655392,0.07758590410976321
913,57.166666666666664,119.36560872240047,100.00235675152355,9.823964091047818,10.013567271470992,0.05486670389455691
914,62.85468749999999,109.88687297504795,79.57031049801861,9.830484434343687,10.000636670327435,0.051717010290933015
915,93.80898876404494,372.8846297255575,189.79680411418263,9.815122497725266,10.097024262654323,0.06442957230781524
916,77.92607802874744,223.85965502219474,186.77551842684406,9.870237454906237,10.020794303494625,0.059529605760908405
917,52.52387448840382,160.37777967829172,99.00704524219377,9.875150853827886,10.256202705331095,0.07541413181155594
918,37.53296703296703,303.15480704271783,255.32616343871115,9.856958208958037,10.117463529762505,0.05701989120356982
919,64.27016129032256,149.12920447174682,149.38121527208335,9.75280121455718,9.990702603584433,0.06978215400889283
920,55.199999999999996,513.8339920948616,256.9169960474308,9.94811340200906,10.164964441878041,0.05565387327589587
921,75.1547464239272,142.9500687550105,110.51514038554531,9.851010653396122,10.180003065961303,0.06582361311111368
922,83.35669781931462,105.4840818886457,78.73053849153662,9.787842377080652,9.982445293454443,0.05971283617297234
