,heart_rate,hrv_rmssd,hrv_sdnn,avg_movement,max_movement,movement_variability
0,72.66417352281226,48.668455142145376,46.93269563232047,9.686558975798759,9.884712003375839,0.06711023549760557
1,155.4578313253012,158.97226611459365,72.41298071331059,9.722490069847144,9.955082204205068,0.06877599595324388
2,69.0,84.88311665528185,69.12842942254593,9.824678968672536,10.161736121505097,0.05422650610961336
3,72.3828072531901,50.661655688668425,38.665602302923425,9.94205755993831,10.115166017476648,0.05159890435233497
4,72.13849287169045,56.702095047966175,119.78226502850016,9.998969777752958,10.294539784505309,0.06561759632212436
5,70.26745040411461,69.42072852510958,61.20850605564224,9.915178020278649,12.162311129396924,0.09755246147127387
6,58.140760507004664,81.57506611709942,89.4130079931388,9.835968524656602,10.027649706587882,0.054525012901059614
7,63.71352431712192,40.780786922655835,55.24612576134343,9.614405600428364,9.815437127446607,0.07356149657959388
8,55.84988962472406,76.54117284994888,52.25170867876909,9.68606850838688,9.82889842607144,0.048137169592846904
9,69.79310344827587,34.144997058551766,20.755139585395394,9.795986691179742,10.018511984331292,0.0658645459548384
10,58.42403781228899,51.48103480748298,43.482186829182126,9.580265391621852,9.766006444421926,0.05346190374531192
11,74.56348470806302,102.05489713326524,96.54164670172906,9.745642882883182,10.714769045647314,0.07600923579184429
12,72.65641025641025,117.05767881368155,82.7341516775415,9.86927860724849,10.219330101777263,0.06359471973935102
13,60.84588804422943,83.68012611676421,62.029423039790736,9.90336186451181,10.107076673057112,0.06422487795069032
14,79.0625,218.73462076263493,142.14602328602032,9.68140995594799,9.887321704932937,0.06563720651331616
15,65.71428571428571,60.37649136964215,78.29014238074087,9.825400593447652,11.456819428759351,0.09847451899761749
16,56.33603238866396,41.3150806373007,29.59577474951341,9.969883572835572,10.144843602490713,0.05581187385854906
17,48.07600950118765,170.93526280499617,145.19640588448766,9.882024191212848,10.571164803293602,0.07592437744611671
18,71.26760563380283,47.34482665047572,36.80652397003334,9.98531750089665,10.187721331477722,0.06504079844173272
19,90.26540971718639,43.79775000293152,30.321358242199086,9.962749130777883,10.371737104139747,0.09341127641317963
20,54.72096128170894,69.1033419858923,83.39174568072674,9.863523112284833,10.105621457212838,0.06674692036662166
21,60.72,125.44490196533157,111.7955385275174,9.864298438807914,10.107390505954035,0.06668149702114702
22,58.22745625841184,82.67391566542248,64.48555821406377,9.763468047870614,9.966176218635217,0.06099939457127208
23,64.79916025192442,86.7186768957428,110.51886934831393,9.622650039274872,9.926047098174449,0.07064627143228039
24,65.76939203354297,77.01538346995328,50.84526171513555,9.938598913230443,10.196533347843843,0.07408565717283987
25,52.640322580645154,60.376491369642174,60.234046972721316,9.982732739109608,10.166470157159692,0.056236776106625204
26,89.29411764705881,42.25474180433588,24.998242372872568,9.769568916329304,10.03416384291783,0.07239564051419088
27,50.25636672325977,71.8623986471391,79.14228440399162,9.953973546323729,10.2134550162124,0.07029600802781807
28,46.33333333333333,,0.0,9.81218582920777,10.069751129263503,0.07599359626496537
29,61.85220994475139,78.00429897754391,71.42188252068127,9.778923949000518,9.988783704520875,0.062050971920129636
30,125.39999999999998,228.77148029229696,142.7394782476259,9.770292927984146,9.947273079191817,0.06719193387842236
31,71.74881836596894,32.621495159314534,35.12212657274757,9.828454809764601,10.061899765543266,0.06669363800407625
32,82.75877520537715,86.83144936696877,65.16746976740744,9.867892801147569,11.008929516953971,0.13093249455740544
33,48.688524590163944,162.63384910081055,133.9186558971046,9.650153157550923,9.885892998938552,0.06889708519350463
34,112.31026252983294,212.44420944133202,124.53515692540897,9.978928566213476,10.198085984363157,0.0665768998413868
35,61.19764011799411,104.14743861506084,86.95630798249056,9.645963610721793,9.92521621794667,0.06871154869787278
36,66.31048387096774,37.30155353394634,26.96235850093686,9.613856513438972,9.826153393361825,0.0660503598164762
37,70.6046511627907,47.829120118852074,55.27781180176115,9.717928251114122,9.905265816520634,0.05805398383802002
38,75.7932489451477,61.19540659498655,40.33673870230318,9.82146822504919,10.039676423950338,0.05832386085927518
39,51.72600834492352,52.84089840183335,68.9482476288073,9.828358265756842,10.02752965706081,0.06464677569243876
40,57.71863117870723,85.25256404751649,88.1165881802686,10.080219807741441,10.498506771494286,0.07405168216292747
41,76.76495726495726,42.82500702655822,56.36706589699778,9.639680446048141,9.872359566764798,0.0669949878573776
42,115.45217391304354,214.5955772519509,163.03219710067734,9.803792293142543,9.998111809013803,0.06839339723208812
43,70.10843373493977,36.18782240472767,35.49735552461398,9.730713085543531,10.15460580372405,0.11688673987156574
44,62.743999999999986,71.74846101859792,66.15387872534923,9.937071338685072,10.140213740463148,0.06528566665575251
45,82.5,139.49011098657326,118.1811572152257,9.853057048060604,13.440845784416647,0.16810467949350497
46,60.3111111111111,101.03808050824928,95.75972873427018,9.800432485136255,10.13748614826798,0.07263085361261672
47,55.35483870967741,103.37309747527289,100.57601038019513,9.798724886131609,9.984968023692785,0.05209955853656852
48,58.47641509433962,87.16859123757244,56.442222100624036,9.779814508173319,10.01093393024449,0.06406736391598347
49,72.89830508474576,42.41449565127745,33.85310341446416,9.780270374344331,9.964456007636326,0.054081217675529744
50,76.46407927332781,90.76055293075882,65.53072963012004,9.739810693453606,9.969876337669723,0.0648870945128955
51,57.460426703372335,44.35443539025944,82.46007295662847,9.899135713098458,10.198035314395865,0.07108694315121598
52,80.85937500000001,101.94853452267564,63.42967057360991,9.694382706597812,9.929015072086791,0.059997357190171796
53,62.82777036048065,53.79647047803496,55.53304026618026,9.738398915588494,9.969392414838277,0.06337895630427971
54,63.79853235490327,53.36086435762233,64.60613921503735,9.685929040469876,9.877990993020632,0.06445994746194657
55,67.51212938005392,46.76742911541195,46.788896837045385,9.665166490998068,9.870404899066992,0.07205311871413007
56,70.85816876122084,81.28433912551425,70.76778237949152,9.744622381037724,11.668247644200413,0.17700738328143886
57,56.14660390047075,94.85556023915315,72.67243021319207,9.619440689164774,9.880127647877854,0.06511966045110677
58,52.98027314112292,77.6269174752542,75.18351213001326,9.715956277245004,9.957539345000766,0.07280300614313528
59,63.852380952380955,49.22528451203472,55.17673596269348,9.792056926576603,10.30107273749908,0.08421928166774435
60,69.89352517985611,64.80917384850635,78.57711921229702,9.856002509993669,10.082895408873163,0.06425581555738846
61,55.93969849246231,69.65121299264908,62.83042921324364,9.786103007545794,9.97004912566752,0.06525436666448228
62,84.4693548387097,59.64220047547208,103.37112936662226,9.984675489525413,10.384092168377954,0.0764948906015471
63,49.60108917631042,39.94396463556612,42.49362927351999,9.882018500390304,10.123444660478473,0.06989240425188044
64,56.59210526315789,99.96041439719048,137.0788465285624,9.870033321687922,10.86260587628105,0.08605820672435113
65,64.23131170662907,86.52124859396372,53.50181951053216,9.954782109864551,11.032640294009882,0.10006296662589512
66,98.73170731707317,91.6365463981789,71.08445933763912,10.091668355232237,10.259782812563708,0.05392784469306869
67,58.45714285714286,97.48780360308791,125.9887219383973,9.54390484739124,10.353962444238741,0.12212932187501012
68,79.89473684210525,46.37533382933211,54.445630966102335,9.790140259949368,10.124299354511168,0.06914262580814333
69,48.0121130551817,57.1000093687443,52.55907826759649,9.88442949417072,10.073474020974047,0.06301183546909249
70,81.77777777777779,41.47874039518206,33.56412613493833,9.745083848841306,9.93130844600486,0.06253260210091789
71,82.99373695198328,48.06062281458164,33.55678652845457,10.005366209247732,10.188602243871863,0.05125042509618413
72,62.71848739495798,77.26669781707521,71.22051645998461,9.654874145601694,10.12908105806602,0.06863956013763375
73,63.9264705882353,54.064554499844945,54.07958325995346,9.719121645434411,10.085107236704879,0.05804076273929186
74,63.420485175202145,42.9418558304436,30.010461037714716,9.750520801275524,11.572888793084314,0.09661455426792984
75,66.48921832884096,50.86773785072627,73.88701820168579,9.557225989463255,9.790955026312322,0.06639345428966296
76,79.08538350217079,88.76557188620009,93.31163205955032,9.746060403696049,10.110012810724037,0.06915599456557978
77,114.30722891566265,258.9288383821188,172.6580662904151,9.614142263532631,9.923259340258372,0.06645866933656537
78,57.4564723694171,76.87324023490298,106.67251203864112,9.707915889981292,9.911804857735074,0.06782548189669357
79,67.97014925373135,50.236277415197016,55.614740765331874,9.835349215118496,10.049087549527146,0.06411230698942355
80,59.29687499999999,48.256418879369974,78.18424876153303,9.74509765647293,9.982578933642772,0.05732464226670317
81,80.63279445727483,162.0071267345391,137.73820181827722,9.52813614524318,9.988467076539184,0.06706797611953479
82,62.021433355659745,69.59216150853368,60.98422116686295,9.751380125862001,9.937102585491827,0.05897737965342874
83,67.35153583617748,61.192426903854134,44.43618341488622,10.133036625276691,10.385749283240894,0.07457380048373037
84,55.199999999999996,54.29271302319723,44.19106674900768,9.660290390002618,9.819219996964796,0.05368833634811831
85,80.63745019920319,42.42155943609641,33.5241016871292,9.97948230865363,10.172171929274434,0.058276394741681656
86,56.53829936753337,77.08950477134431,57.66091962138175,9.755318173825337,10.832849677779684,0.07049536044737544
87,76.04081632653062,147.53905327187792,91.58537443781029,9.745129217031907,9.98542087342139,0.07939844207833206
88,65.45790554414785,116.94595098180733,112.64786755087522,9.946091312653687,13.242934869235642,0.11657558857024383
89,60.720000000000006,30.443003329541853,36.796416452619134,9.920767083607753,10.114684658797957,0.05798064306537503
90,61.00468854655057,56.603874339488705,83.5641011057604,9.806583432149239,9.988450166502686,0.05098135795845748
91,63.38204592901879,77.72269409092293,56.557660163060014,9.80473019262681,10.036621518313671,0.06482618889439364
92,55.29857142857142,54.45313811966654,36.97391441331954,9.917907231680774,10.481183642128606,0.07831576679609115
93,73.748987854251,31.467088484245572,22.58120751120239,9.929386314999563,10.27224299028004,0.07724771610151843
94,103.26530612244898,241.64069685054318,199.63409168655164,9.684782489822123,9.870594582593416,0.053193508902994076
95,124.93827160493828,234.56222373763174,142.38852709917035,9.891972978910728,10.082062121495284,0.0561705973005927
96,60.156829679595276,78.03132281309486,56.024149188281825,9.774023433288653,10.010756056988077,0.0656709462726912
97,75.10344827586208,68.27622458493072,62.501344475504844,9.693608125738688,9.867062869232287,0.06741928325777195
98,57.283018867924525,124.42177285792874,94.77927911685218,9.826223810929015,9.988644845148123,0.047907229436080674
99,83.68759571209802,142.3160153712994,163.5408571865284,9.880741704325274,10.375521466900906,0.07930010550906454
100,81.28372739916551,39.52569169960475,43.411271519667324,9.88137217015961,10.41556634956567,0.07690972873317616
101,54.261551874455094,142.02744697477206,98.56821003467662,9.961678926265352,10.14775625878676,0.05412753452412359
102,61.491660047656865,45.76156037478029,32.73457658210169,10.034860149559812,10.910805600097184,0.0718199625080066
103,70.06153846153846,43.13874753610663,34.092171659200325,10.054824112078363,10.303991589524662,0.06680636612745618
104,122.57142857142856,173.41826852553604,131.12714291789496,9.667719140913006,9.900726399139083,0.07318540775428087
105,58.66666666666667,86.46749198821881,117.64704446433456,9.943929480226409,10.187352295059432,0.07160787965702976
106,73.70086139389194,77.04975766647402,57.87323328719298,9.863565556258115,10.02337392972575,0.06061435894470561
107,62.77830508474576,40.17905318043985,56.13013108976282,10.01529250958533,10.280828713834575,0.0665126823815684
108,59.54920212765957,61.62756924921042,44.48839744324782,9.644053183249824,9.838888131555338,0.058649624041992275
109,91.6794425087108,93.37935544958393,90.53602432336768,9.706108159750062,10.247606965228155,0.05987659348955479
110,79.21861777150917,45.877431743030705,32.50747581391506,9.80831183808969,10.000459687419417,0.05916613044270161
111,63.50199203187251,37.22759485058385,90.38364166040257,9.75007993776466,9.982150547422927,0.06501599954499207
112,86.39024390243902,206.95251382213834,189.68466439571796,9.872135674977857,10.063230585513608,0.06762461509026957
113,66.54246575342465,65.44976548622004,63.223734644613266,10.040505157358254,10.241254241991296,0.05989932486406061
114,71.96444444444445,66.33568313662241,59.583730707472,10.046578482630869,10.302196694512626,0.058726386683683206
115,60.63914780292942,40.19003556500475,46.18853265601612,9.209517619880138,9.535285024231023,0.08050939584412106
116,57.474387527839646,97.4741756162172,135.38579696695425,9.68793009417166,10.089384729455153,0.06572966011108418
117,53.9009083402147,131.57414154643448,101.5541571441061,9.701367785464011,9.952327533151612,0.059334070399143214
118,61.42574257425743,75.86697684262438,56.01396320097233,9.893606132989746,10.38130586882104,0.07981997433115828
119,66.61436170212767,46.2506460804048,58.59180648525574,9.877740086909919,10.083133762252258,0.06015735587050376
120,52.4956772334294,87.79094202349239,88.68848496598325,9.70209061280212,9.963150281860758,0.06422023590498256
121,51.38862234407129,82.85108337012167,112.46659012552172,9.672732925315719,9.863586343011425,0.062027772993995346
122,66.08979591836734,76.50066415547366,77.48218669744166,9.924676823271627,10.17308725376435,0.06501767815484573
123,100.59036144578313,312.60299588452335,192.98991362109842,10.1525820503117,10.38210500480533,0.06718216230098406
124,67.37110481586402,38.08790955175616,38.11376400176488,9.72218066523684,10.210717760198955,0.06818643066881533
125,90.79435483870968,70.5045521751656,41.04585019100588,9.698973281663056,9.921183697909262,0.064440365891053
126,59.83357664233577,82.09292522275662,106.0302676751973,9.695690318451282,10.405221060140443,0.09342223775768892
127,111.10220440881766,231.21133482709416,137.79483264259338,9.850911012185819,9.999198387747018,0.06299032211117551
128,72.1034241788959,86.8425212502297,66.53631203126716,9.994126652103976,10.242118321425965,0.06206467425985998
129,70.09523809523809,74.7471607322113,75.00082995681947,10.001960072305478,10.202671346132039,0.06186754282658588
130,70.52399086062454,95.33955559771184,122.00630202749609,9.941914977629157,10.238751599162311,0.07793378566490672
131,76.01345291479818,41.92332694781902,45.28308905054685,9.822863753673413,10.08929364729585,0.0752038458950968
132,61.081967213114766,38.69347867085224,35.19489175866293,10.052069546264192,10.249770192133795,0.06457115449635474
133,63.205363443895564,58.99889958090508,57.52796795344948,9.777921340414032,10.013864094567584,0.07104438879879368
134,68.72027027027029,28.369192196255828,32.558892635352755,9.795922113953015,9.99120010740753,0.06084499585630124
135,75.109375,37.975056238360594,47.25532220345556,9.811936485528458,14.230095733404923,0.130681455829681
136,76.47067669172932,73.37477958770864,61.55718228185042,9.586866816540695,10.323374720451195,0.07797072076800192
137,68.6978102189781,136.68309566038488,122.69398672670569,9.644811592852152,11.367184352871165,0.3328251406781431
138,66.87224669603523,64.35727939779129,46.26363601074949,9.809501096426917,10.194577020510751,0.05908848308490327
139,65.63679245283019,36.358348261177824,29.244685518326673,9.77238776677787,9.983004433806546,0.06559445767957846
140,80.8099730458221,31.327823079099492,33.0820538446321,9.67396771661478,9.9037823928718,0.06701709224870078
141,55.54890219560878,83.84665389563804,111.80939661965512,9.949011356292639,10.22029050216646,0.06556145807267463
142,84.95136575616256,60.42842814601554,37.9802135925505,9.870470257503731,10.412898168965862,0.07005285183708146
143,64.68175765645806,49.04503753357943,41.318499712642605,9.672685350818655,9.88638129850624,0.06630737261208759
144,72.72469635627533,41.184827845986376,31.766058270193405,9.668291542674638,9.887563469977517,0.06581128653610253
145,69.37096774193549,62.215145552402674,65.55625287082856,10.00374358855527,10.227866965537858,0.06694238062494591
146,62.063002680965155,47.595235489297686,33.24241647996028,9.927679201824763,10.162529776078767,0.06662963180537297
147,81.70899915895711,55.65630908844329,44.633353421824744,9.726836652975024,10.010443412772926,0.07178572086698329
148,44.01822700911351,83.53553351329307,85.75288766378152,9.805915659786267,10.018741439771054,0.06623920489522515
149,64.55282392026578,44.54040868134475,40.133778139525575,9.767021465435436,9.933652588773546,0.053077858209211286
150,68.21327967806842,30.770709255396103,20.874055823201104,9.792552993814457,9.996082281923064,0.06549908239629298
151,73.35302013422819,54.09736663765935,51.71965618495335,9.89770597159201,10.111284423978091,0.061395764498621275
152,50.56413890857547,67.69556036187157,53.769632034802065,9.85063698970009,10.050453677533062,0.061494777693168814
153,86.3481228668942,46.91902571757311,63.285557500791896,9.787119502227196,12.410126894968068,0.1960760991615276
154,84.15351812366738,67.50296947272462,183.92135899251758,9.91637089430338,10.94133466646267,0.0658348614933056
155,54.333089846603364,100.26432133228948,92.23327698797056,9.846021011740401,10.071699086016707,0.06368749038455054
156,65.42222222222223,45.36785542327853,39.636509361956605,9.795867063155331,10.09144364786957,0.07336577080478182
157,65.40375260597636,77.38695734170439,53.66087086961356,9.960769652765956,10.248434194879627,0.06583868740492896
158,76.41632653061224,86.89661369086248,61.756258659522004,9.7985889836251,9.965180985797861,0.056418543217785465
159,75.3206106870229,132.0812757296668,95.37480779177938,9.95314866775673,11.589849619298702,0.6323769204570439
160,57.11060948081264,79.25697902184429,46.82752006203915,9.710474127427501,9.935282829644029,0.0640534863641667
161,67.89776357827476,305.3130494402231,123.74142857600862,9.865565865991805,10.118058852292963,0.07783667760012822
162,69.04828551434571,56.99606222370303,43.01547992417727,9.782665686900177,9.975681867558075,0.05356802877393232
163,75.9,68.8397917133762,45.29845748440202,9.706222684938949,9.86949101713666,0.055965584805110796
164,82.40119760479041,31.637375075076047,32.62836177696918,9.855789118069524,10.063661565315535,0.06290364722317544
165,81.04312114989733,38.20338604578107,25.84372149589541,9.866379726047352,10.07086202957246,0.056360289320683626
166,69.10648148148148,105.38687161586988,89.11791598213111,9.864132738143145,10.103029890746914,0.06976298323099869
167,79.72462739531582,66.50408662342878,68.9028949898515,9.744448452657359,10.053043989568184,0.06931949952746931
168,65.29032258064517,,98.31891671014029,9.822060388660658,10.532902105036799,0.07386258478487495
169,55.842342342342334,93.96956944143196,108.22302060981477,9.681204573544633,9.971624753749843,0.10626823735445307
170,77.32439678284183,38.457231934983994,28.561535714054468,9.67625814973536,9.885470269130826,0.06345612701726386
171,80.39581881533101,36.17924200806773,45.775454443533896,9.663267559957761,9.989526977754702,0.07483948160659998
172,68.8381548084441,69.50896702391047,96.37787360434946,9.671305404045812,9.891543708712309,0.06811474037018632
173,121.76470588235293,198.0233209466458,130.98591327153167,9.955536991815642,10.184774076635076,0.06335019448021086
174,65.17564402810305,59.94367939961695,45.01749123497181,9.845049696468173,10.11535875264496,0.06578123933553567
175,68.47224080267559,82.34712942904449,65.11344795742544,9.808658633932675,9.978337494326464,0.052582322272871365
176,69.00000000000001,38.3276641396514,46.47174166776719,9.825592150043981,10.094713803366108,0.0754327658940645
177,72.57370517928287,206.07187867681878,141.0965085020019,9.977314881556186,10.167001367207996,0.06308960397497515
178,54.06854838709677,88.38213349801538,74.77786298817286,9.681397099064032,10.046006937630233,0.06699137668549095
179,80.96000000000001,82.83820325809097,48.61017342390848,9.788337067742749,10.12783337397953,0.10012937704449541
180,51.15680880330124,42.30972522616974,29.217988668669577,9.653261050494663,9.810043744405444,0.052163255886101434
181,80.00133422281522,33.490851610131365,39.26198292252655,9.907091016484511,10.165423283781001,0.06970109858699318
182,142.07881773399015,185.3919272657482,130.18088493581874,9.846047385723534,10.036945397912227,0.060701437974246215
183,61.051124744376274,42.531825047349436,77.85577638303614,9.879354879266257,10.570451798528122,0.07231694097049943
184,61.498987170830524,57.301278971911614,46.48355036183964,9.766895883264771,9.968230358526778,0.06501946486663718
185,68.3508064516129,82.85267028636366,52.69285038844338,9.866988146556182,10.152512885993435,0.055114436089752215
186,57.181236673773995,69.57014912098037,53.508512535318324,9.712975131628362,10.349158919950543,0.09575662242095219
187,92.85638297872342,37.05986015324075,22.895536336955196,9.726587170766527,9.912188196377937,0.05889711534589163
188,65.11528150134048,68.64137974331061,41.85048010399558,9.765122182166815,9.93960672595981,0.061991508150569724
189,56.697674418604656,79.82263467152588,68.9502533004771,9.784955426063695,10.052042832649011,0.06874548373334248
190,62.962466487935664,89.55390653537303,64.87814982515036,9.712971712300458,9.879375564456145,0.06257170055548208
191,52.16494845360825,83.21479369362439,73.30923711854311,9.869623066288813,10.07511886060956,0.06175565229581845
192,51.537037037037045,93.81282276109565,97.3497462029757,9.923456864322691,10.169334322057093,0.05703255228276328
193,98.81717451523545,41.41391159060283,44.22905993542916,9.850543692154544,10.056973752084916,0.061715950403909266
194,54.214285714285715,190.7908045240659,109.56683238829784,9.801888591589204,10.011636741767466,0.05218683821725013
195,62.17582417582418,67.85731820386982,53.083581983750946,9.850115941944678,10.594091340430085,0.08221782042115494
196,64.96874999999999,39.52569169960472,23.675214585749664,9.726163160896125,9.925996914203543,0.05425720960918323
197,70.09372846312888,49.85424694758031,44.54698160262604,9.849216166058065,10.11041383495241,0.0694353651504779
198,97.725321888412,367.6101825639975,223.52895979392355,9.79348503246192,9.97434639836365,0.04945240608791964
199,48.22692889561271,112.89339339475879,71.76990764139892,9.712955819492775,9.997131782644367,0.06607332732052637
200,68.70258620689654,38.94009352346943,33.19253169310819,9.999833859814705,19.065188564461522,0.24179653240227164
201,65.20618556701031,61.399106667639956,99.06371666605875,10.02156047430156,10.466419538795993,0.07612424676831306
202,60.84168336673346,52.224234803234275,48.09861485183618,10.042721502318948,10.228252593191751,0.05969817289370222
203,77.58439811701415,43.53810709317077,44.114492325251206,9.704735831644001,9.902918134205303,0.05704474960310291
204,78.72606382978724,46.59357189982016,46.89463991591882,9.761756487774502,10.023762426479346,0.06170396219573273
205,62.82167042889391,58.5234921098211,38.99291402443561,9.777432726769993,9.974313104417291,0.06215876381380626
206,53.11978465679677,55.89776926375868,50.44287024334769,9.941558689850424,10.190757629126153,0.0675593733474043
207,63.25,158.102766798419,96.81777639459199,9.771812246654967,11.608268850513,0.11901709557792095
208,52.694259012016026,129.68225777618542,102.26226852442771,9.806530541547822,10.026101228616174,0.05157893186145716
209,83.30968169761273,49.24145666078019,36.252758725502474,9.78343665945227,10.22544818665584,0.0777379172757512
210,95.67226890756305,208.682925710898,171.7031310423706,9.877138040148361,10.08389534800209,0.06186920647786638
211,91.28285077951001,221.05351430253646,122.72459033895295,9.814653267022985,10.111579157192848,0.07309375874630145
212,70.27777777777779,38.74292722607141,24.539520056002686,9.823634271776934,10.102305524400766,0.0648719053824643
213,63.25,58.53249780228187,43.052908188007315,9.766407230317913,9.954938417312428,0.059155032388779304
214,64.33907284768212,40.148181832677466,36.78674064188593,9.916640691307123,10.142756150013328,0.07142549873826745
215,71.15625,,113.3376188016156,9.956173210345584,10.213474707052145,0.07662565679910029
216,63.57531227038942,66.095375245026,58.79888197961329,9.819072801833185,10.002783904076946,0.05319476726726304
217,84.8993288590604,90.22362572166193,65.49348672634935,9.771016448157516,10.02597373655352,0.07135169590472162
218,89.61686746987952,163.81227578524565,127.3684776192672,9.74457596015814,10.008660946887927,0.06965830631923828
219,80.7333799860042,48.626457330375146,47.990824649996256,9.697268908744547,10.277715128697652,0.06400310556617281
220,88.33846153846153,31.32038797205777,24.364340880090726,10.020971248708532,10.435556816090166,0.08658849536865762
221,49.47555555555555,54.89051974936076,52.472446519979286,9.863648227568605,10.716024663565248,0.08056883530722708
222,75.95063375583722,47.750233177282375,29.923730311627704,9.742220986323769,9.930034831203224,0.059515755161745724
223,64.29834254143645,119.95592463772408,100.76380968736241,9.647230840794071,10.057638691646936,0.07279010974376737
224,74.35102040816327,72.88177436595166,159.29910789649205,9.84694409216213,10.466266296759954,0.07807632932365549
225,60.801068090787716,65.69726274592885,61.64262221496491,9.724332168159194,9.93323938478553,0.06329035604821584
226,82.35632953784327,36.70785695851129,33.4109066874029,9.627275416019039,9.797010937422108,0.05479720852599543
227,71.9787685774947,39.8285749925517,26.21067770812703,9.675039063425015,9.884210732652907,0.05409901044775755
228,51.78461538461538,75.20275727446815,70.65811870133444,9.995087155602162,10.210116694898883,0.0656119518075672
229,62.213114754098356,34.90055946306994,29.92837072885523,9.696337187453796,9.906339026679527,0.06163696548434448
230,76.10569105691057,31.033038888747853,22.408051451130255,9.765597203635616,12.301082316972343,0.09473922083627934
231,76.060691601976,67.95525573436635,55.278924844653595,9.551704995483936,9.741411576116864,0.06341136061061177
232,70.12500000000001,38.63065434191468,31.623972352326057,9.545022269828076,9.727937365450574,0.06203822931680111
233,57.014084507042256,70.50455217516556,68.68934421288458,9.815837579898531,10.01746436632583,0.06929998215320242
234,79.37254901960785,238.5616055819041,139.65705558401748,9.68239002194823,9.859150852640244,0.06057021749955922
235,64.94117647058823,28.16982786955724,23.694819779213034,9.90274897997631,10.085516844298562,0.06289309062832374
236,79.67967698519516,35.752333349141935,28.232265688018895,9.926452249752435,10.173713651282492,0.07798841574810071
237,93.05215004574565,117.38313363153767,67.67567883759064,10.041509796579664,10.279587194388082,0.07786323563736612
238,51.616692426584244,80.45063155717115,64.9025938490422,9.933748564896321,10.252409343315739,0.07164265281797444
239,68.60401721664275,56.59217811571676,72.33260325657737,9.802507162320778,10.115235852559898,0.06709754032328974
240,64.88059701492537,74.79285669291069,49.56793328340217,9.916403938920874,10.143366992691456,0.07259476810484716
241,63.56157635467981,71.08080601838519,63.899856497942466,9.826331568965102,10.077451709483405,0.06674079256664239
242,73.29906542056077,57.559635856013834,41.62903918733777,9.96064783477016,10.861600729930851,0.09144185038899608
243,84.95886716115982,35.72810269007313,36.69623286691459,9.90221920603182,10.225866240577169,0.07925453210181746
244,54.97786720321933,54.56350130163422,47.14736616948588,9.877549956972729,10.061648745670066,0.05481208480592575
245,53.14660831509847,87.64252105171325,169.4130984743076,9.77690621505669,11.11651693376172,0.29817996767685506
246,63.07183098591549,74.50956081533965,45.947419305908106,9.695758413954183,9.901621930027137,0.05198917587461877
247,57.55450236966824,62.83556640545315,49.301128557595476,9.903658874134626,10.044188956234654,0.05225798058429548
248,60.801068090787716,70.55574754837056,59.92919850089152,9.720522528952593,9.928884891735269,0.0596533238702286
249,56.55888223552895,102.3791022975244,73.8615370962884,9.851477107643175,10.049766328201354,0.061264622430959745
250,56.58494623655914,68.68832884182909,52.98459081132089,9.872107777753076,10.084530692216031,0.0573422308357685
251,81.08974358974358,61.876384372483464,48.96933852044199,9.597465680244474,9.803858057073901,0.062234834635847815
252,63.951219512195124,39.15103213783783,30.995765395779777,9.725432668954495,9.950457624007033,0.07016092932533331
253,65.29032258064517,33.405306511008526,33.50953548974932,9.736400979640484,9.926384175024237,0.056714659985561716
254,80.74468085106382,61.90321715100943,61.57218153121435,9.814574137124632,10.057591156758873,0.07460854292359745
255,84.55973154362417,39.76597167385104,28.052148149955986,9.935868500358387,10.185956116284673,0.06732983084575565
256,51.180040458530016,41.87576785485977,42.283254135387615,9.900139792404165,10.126595077335482,0.07275264548765858
257,53.82978723404256,108.64573453537972,61.572181531214326,9.992767446648976,10.914285150143675,0.08323874979376505
258,100.0232558139535,283.4971645764165,154.71569178901768,10.025650724404894,10.312816196899776,0.0675825181240688
259,67.89452603471294,33.70762313922692,33.94053415997288,9.72350601433457,9.97703803281834,0.08992610711775939
260,85.46094299788881,54.62925924784198,34.932612004572206,9.798157693728259,9.98937630711205,0.06572765182365688
261,60.332150461320076,76.06722914224324,50.53858876324975,9.6592863463733,9.847627978752667,0.05729795565816256
262,69.35689655172413,80.25223265698413,106.01974760227282,9.905083995626645,10.172419166467455,0.06576879666754397
263,74.23331085637223,62.92612628415483,44.6749000028846,9.671693323853246,9.874898389373397,0.05795383112880775
264,65.38767395626243,52.520483264499205,33.604747654966474,9.94478000174242,10.135242746681719,0.06073383218136841
265,95.41714285714286,291.12489847146713,155.7993775686583,9.95341707147836,10.167870560151425,0.06783947731594336
266,81.44869215291752,35.296871015074345,34.932612004572206,9.62364727202769,9.80402880696757,0.057943926686847134
267,78.17524980784012,159.90409932488825,112.03498627730033,9.894836404447808,10.258177420195363,0.06864287484140817
268,63.46325016857722,58.58237310851143,39.71546124486173,9.764048675247059,9.992344809384857,0.059112621345123996
269,64.32203389830508,107.52150599790863,131.03228817589545,9.879928229980466,11.376833833961454,0.17311730208581075
270,61.57079646017699,59.541368280833574,47.20161515967818,9.791032111877689,10.037745496876159,0.06454051279778016
271,52.12017167381975,57.192870073074246,34.443527782477034,9.870964761284924,10.075584351272258,0.0665306535330194
272,71.44859813084112,68.13196067618817,48.01482897586961,9.820009021116316,10.036700242982036,0.06392720402611118
273,52.541760722347625,43.697296315617926,38.856913746674735,9.77362916528893,10.520894178628843,0.09333973594496085
274,71.29335260115607,48.02315385722969,45.84512453626211,9.830423904896868,9.994680651826767,0.04878192398172979
275,68.80453257790369,45.54671618166256,37.54615650585635,9.81498005281376,10.046094707681851,0.06335622551189801
276,60.963855421686745,36.386348533530615,47.704524348436586,9.692274059465458,9.955891110556934,0.0682453498898708
277,68.77669902912619,62.862152218534234,113.24771948126245,9.700659681617575,13.170883157193964,0.20319849677629548
278,71.2418772563177,76.96522691401793,84.0393734331727,10.048372049000564,10.562222323893591,0.0879592388295055
279,65.33422999327504,57.64499465881254,46.737243682096185,9.732883794113496,9.905666026094629,0.059017820044002405
280,57.33996023856859,50.107959766512764,34.013587042315244,9.769729236975438,10.198249361712108,0.055412213769017886
281,81.23076923076923,30.809634899365896,24.67884139079482,9.768999214569735,9.970006628855591,0.05630723673167298
282,67.5984375,89.92829391217725,67.88565703083233,9.664556178353129,9.874457721234965,0.06298391766101344
283,63.9375,73.2381665859673,65.038636974917,9.97107735725676,10.185030353803242,0.060767687520189545
284,66.34714003944774,44.60943571422932,38.902046026412016,9.734111959090297,9.90035454461182,0.05498330678622745
285,56.30400000000001,71.4839736963462,73.409782135718,9.891148559165192,11.049968364736664,0.0821423597792485
286,77.53225806451613,37.07838545314965,34.685525276748635,9.886779402077892,10.115037313056073,0.07202388752284249
287,65.0281124497992,67.18075775484564,97.62594560383145,9.785836818662785,10.063185352899815,0.07129575950316981
288,62.70317002881845,131.25730464539703,108.34894090550361,9.638605292395429,11.538285418829998,0.335448689978535
289,55.80882352941177,55.59314699990307,47.43083003952565,9.814536219918308,10.009404460153798,0.06453544473349565
290,70.83999999999999,58.13455754368715,60.618042217910435,9.887131903925487,10.12243964875996,0.06953086051241122
291,121.8148148148148,190.9796751902036,143.16986631324863,10.008351188597343,10.640150092302912,0.20489272333770642
292,114.33371958285053,224.35835488250396,153.39724463591165,9.99460688791167,10.519454910760935,0.16076948543975428
293,86.4957264957265,75.59534974248648,49.16938855582897,9.864279898330613,10.135757869895835,0.0746544401413859
294,71.79729729729729,47.820666010059774,53.567662227584044,9.727637205277828,9.925527508741602,0.06446524079229546
295,66.92372288313506,48.677083535997745,40.34866727100449,9.860263201462514,10.908976512411531,0.13209739258957728
296,75.44123572867696,42.39920288148117,40.555281001449025,9.796008937250882,10.006598298672486,0.06588043080871706
297,69.6822033898305,47.50396937370206,41.883065631432174,9.937846581668023,10.166800037219813,0.05754123129824974
298,68.0162932790224,56.11234882153403,44.14234449962957,9.787417855383776,10.011960142884243,0.062393500037326834
299,63.023622047244096,60.06202833892032,70.5090431493519,9.853363217478075,10.123491603363401,0.07430716106632822
300,82.8,395.2569169960474,165.61008023684496,9.765734804590458,10.323342621489,0.09237578254382119
301,83.31726907630522,50.6480570692613,54.52588737059394,9.761148337860158,10.026688699089476,0.06107570518338408
302,102.31361760660248,67.62340305549343,48.47269238549202,9.91424718259134,10.099292169711234,0.05928293784464162
303,71.98762886597939,56.105955344749056,52.445015286688864,9.821776136030008,10.059396115089763,0.07457376071707503
304,75.4747899159664,54.890519749360735,85.09681708690991,9.872741748746284,10.573682244211222,0.0808668480383923
305,65.20422004521477,137.6724466264248,102.25729848407866,9.932544519447275,10.604467737637108,0.06932356027611795
306,80.91902834008098,31.960772334491704,21.980169746824238,10.038172769009707,10.22761994907637,0.06367076401363825
307,53.668338108882516,45.311989733652844,33.74964163164748,9.979542714641806,10.162911826572188,0.06223064357721511
308,82.26726057906458,37.1637774722085,32.738570486395524,9.92636663166054,10.122839402972897,0.05878653924923453
309,87.10886075949367,151.55283341568565,115.8954657207871,10.027722362440825,10.734197449693344,0.06327213629549655
310,77.07757404795485,37.198575024281446,39.32695364201212,9.936811523629363,10.128429217597526,0.06548651816072847
311,56.164439876670095,67.44622043413288,47.03216950066729,9.794304145557168,10.02102149265964,0.06251003256558088
312,67.98529411764707,55.04431808875817,48.47534324623708,9.84215717426233,10.130553321218255,0.0744728380175568
313,62.911764705882355,43.53418527114838,61.26744244158594,9.715463737100862,9.919863618542497,0.05836302988718857
314,43.371428571428574,73.2988408571112,48.7915731105429,9.807713149878252,10.054681921312312,0.06933504600789289
315,59.52941176470588,43.171437254762886,49.91560604396892,9.875650145584942,10.030860248452104,0.043316345479780825
316,50.36018957345972,162.28241516883023,104.42259745289066,9.878322798466849,10.096298331232228,0.06688396496691815
317,74.78035714285713,176.8633859864879,131.75229093857897,9.88749593073661,10.149374392577977,0.06895034059155652
318,62.60851926977686,40.50178168363478,42.73603952009632,10.020233515804483,10.246303445419505,0.07425563974965557
319,102.78991596638656,214.76298931019696,178.91615626067878,9.707555793485595,9.939183184344312,0.05552326604598515
320,59.003533568904594,112.16268414153168,76.47788952135382,9.816878581933395,10.144800709121766,0.06808975400049153
321,74.49883990719259,177.67269728196368,184.30463243483814,9.791988452604272,10.023144651740282,0.06354998498847067
322,69.20627802690584,99.42320434363639,83.11614466370303,9.802509220822095,10.058017112577753,0.06617654029726397
323,64.41301272984441,79.05138339920948,73.72244971561413,9.757446480916002,10.858193214319689,0.08490478849129071
324,75.39666424945612,83.81952660546955,62.71597625615263,9.915716414392438,10.098579583397015,0.0531061296267937
325,60.49594095940961,86.98469948508684,121.29527768481915,9.79481263190043,10.15782828756077,0.07947992734507774
326,57.12903225806451,90.60393408596924,58.27150604333791,9.599958499717024,9.844288612793154,0.0670703435519066
327,72.78804725503822,91.11021604515592,59.154863463026096,9.81010687345306,10.27892066779578,0.062482420790969884
328,58.66126656848307,93.75626708605984,76.43222255010842,9.728921619039458,9.92351746683708,0.06216812218936404
329,81.12224448897797,34.157961052080424,23.544965528545173,9.865790304105586,10.06630955245085,0.06174979857469487
330,79.70965250965253,100.31024041934637,92.80342457957255,9.755155923003985,9.975559255506884,0.05614969645761027
331,88.93333333333335,45.90492136844848,32.71091726863842,9.662972288501061,9.894617222020957,0.06451708194392669
332,69.56634746922025,50.712461306338284,115.06922230046492,9.689530877183886,10.67969763372577,0.0794466852808917
333,65.74015748031496,78.55575855475017,71.41432595886377,9.900826535696678,12.3780672045798,0.18867802277388204
334,69.13864701942398,92.38099172784779,74.69815155988337,9.902536660421875,10.146583170849503,0.07386770002572747
335,60.84168336673346,105.4576570035098,110.95977063058203,9.59585412630994,9.806618307327263,0.0666457054861976
336,55.99597585513077,45.956191340483805,40.35967253208467,9.81682738547421,10.008712289548477,0.053983980939563185
337,65.74477958236659,84.45964020497948,77.72632614726467,9.943622983642218,10.145016020716465,0.05890577630604031
338,59.26126126126127,86.5596257298469,104.33177219077827,9.802252852222125,10.049836332878687,0.0767855080796936
339,52.21308724832215,98.29277848909882,110.21315019398672,9.89799089664922,10.18758061728341,0.05670334667337068
340,89.53351206434316,29.051514749440134,23.76707968976456,9.934756025722898,10.24010130044254,0.08071361871072877
341,53.991792065663475,134.85155817574687,105.61966368307536,9.727070699843011,9.932061641093181,0.05925224665079529
342,87.26470588235293,44.55350687562329,33.16778849649549,9.822477556023607,10.477248841747306,0.10382788266103667
343,58.81140350877194,131.2110092703386,86.20636699037085,9.681565885904282,9.864078649069723,0.05429326077441919
344,61.74193548387097,84.43742776188371,81.08149771152159,9.87562534437311,10.048447471439186,0.04996130598554191
345,73.8267821452365,33.26582654269459,31.366610770394146,10.059001654168132,10.263330848721333,0.05442199853788861
346,72.23279648609078,58.96892046332871,43.57065154800329,9.829341533057988,9.997647865480623,0.055775375275124106
347,103.16504854368934,254.40723491967955,185.52945838797578,9.872555570283069,10.155514747899796,0.06825738213063574
348,58.47641509433962,68.46050622801886,100.04371314725724,9.735720092500534,9.981921111260084,0.06935296395059691
349,65.67234042553191,92.6959636328741,68.68398885505084,9.753060164154942,9.972995967008764,0.0732805154109783
350,73.9218106995885,46.767429115411986,31.697691578214677,10.016345972109505,10.208618328641698,0.05559582868107294
351,75.6806358381503,43.57489468494164,48.93643382980706,9.680982461775228,11.049373571180059,0.06655723552661985
352,70.22775800711744,143.42253660788694,157.7515569604481,9.62950637031931,10.104454597923674,0.19729072602355271
353,64.81120747164778,30.290752756316724,38.780454388437725,9.73524354397658,9.96831084387187,0.06657903616380823
354,77.71675531914894,46.89910679257541,44.8561208869226,9.681860223481484,9.864215198880794,0.05948138711483988
355,76.84240687679083,44.38278594310005,36.747512848847556,9.852319473763613,10.115209602549697,0.04978312626603765
356,95.72972972972971,355.7312252964427,176.0413017291914,9.621110167981747,9.799831980127047,0.05652814428410522
357,51.56250000000001,76.17581910351238,63.320108757314735,9.606310797075503,9.815652372392455,0.061654172417547524
358,78.66558704453442,90.78752887218693,86.90027137139555,9.576949912559822,9.812257850256026,0.06533122726850635
359,78.35512732278046,60.317385637050734,48.20334156428617,9.87056513106178,10.077791463141322,0.059507042312635115
360,70.3640081799591,37.71438194425014,51.31905208068121,9.909055404411404,10.30121447205349,0.05410419212458918
361,63.9264705882353,53.59645430825884,66.79882880585316,9.692005085468868,9.929718852581608,0.06924856470907549
362,89.17353139770424,30.437945932160034,20.74001582938227,9.928374195283002,10.168776347947585,0.07687750612269005
363,58.45549738219895,69.42763780573048,48.82968700059,9.703614045604441,9.891685088849304,0.057983517364709955
364,52.68280871670702,70.58617043769591,52.724075373471756,9.685623083839554,9.934811989898325,0.06804356381595791
365,62.91176470588237,33.94851784469578,42.28770611188834,9.798715864670681,9.973815762864232,0.05849024393185964
366,53.64819277108434,94.51475368022102,86.17702818238605,9.843035228433335,10.292937240466932,0.07173188475517868
367,64.45387994143485,57.40201379149366,46.52050747138071,9.723633742591467,9.934048844979603,0.05800124904162653
368,74.22237106496985,34.545745987159144,26.202942514619878,9.993265228271007,10.251654830890532,0.07518064660361101
369,79.0625,86.00534281043376,99.68000168315014,9.87176020013677,10.247501435393628,0.0659084418959257
370,67.79738562091504,84.93561710117564,54.432060979439306,10.053655247128434,10.81312707276387,0.08986868355768238
371,65.33422999327506,40.76116662470865,43.4907161350253,9.76531530721646,9.999654100083397,0.06412445841435568
372,68.25906040268457,55.25891663395507,95.62783041921833,9.956349440528914,10.216455924709969,0.0680066188084495
373,73.34598792062123,80.84596873673829,70.83171379310161,9.96301076580235,10.218632399802976,0.06714602481245864
374,55.01627218934912,118.1466668723884,103.168828890262,10.016720682295682,10.251843534014643,0.05871070083101479
375,61.377617328519854,59.96826159437582,67.84282680687087,9.74862437558934,12.570985483316345,0.13060770325462692
376,99.76198934280639,160.90126311434227,157.60393883706539,9.745516293522243,10.08472741937251,0.06374448949334034
377,77.14798206278027,52.52048326449926,69.27489846751723,9.932340846287937,10.12681438037211,0.07085923536493735
378,64.66125760649088,37.564503028576375,28.914533212379464,9.648088571370474,9.851413235066742,0.06259364640999733
379,52.97718120805369,84.66468940261856,73.49122508526493,9.478723344439594,9.688045681209204,0.06741111197166456
380,62.93886156008433,60.68375285207424,56.40928367393554,9.818731170677996,10.016755747517257,0.060078006724162386
381,71.37531486146095,102.57426383164851,68.25280121945029,9.656761044782082,11.47699575291371,0.11163838486217165
382,83.59704499664205,29.131530877078617,19.973343637424723,9.923549350389509,10.215619800215556,0.08139878828335453
383,78.65814266487214,45.79022405461856,34.34264911180686,9.596137796477807,9.795189778671935,0.0625061351252364
384,81.83288409703503,80.65213627245372,55.159232161869014,9.84346884523366,10.612999684049296,0.08854791395128606
385,58.15163607342378,130.42812828210364,102.44946423326594,9.697911360507815,9.978066583907225,0.05424013807829074
386,60.801068090787716,91.4738618004866,69.57968867726427,9.826952542510565,10.033391991103151,0.06128196224983611
387,63.14880000000001,167.17493465677896,117.54939752036066,9.822090738148967,10.020542611024348,0.06004724680361225
388,53.48275862068965,66.53696789345675,53.04181509014344,9.715113556756231,10.48347228107095,0.06754890551527282
389,86.81372549019609,61.0363633319694,62.93788726411189,9.803454193726873,10.37303417590851,0.11721828647675063
390,88.81371889710827,36.664529230957136,29.743105362469507,9.734643615510276,10.01233078317413,0.07343260157273535
391,92.33823529411765,36.55978109489225,23.59114904921213,9.867553847543217,10.033873683245396,0.05254922332985898
392,72.97088693297225,34.06686195143615,30.12358572280506,9.766852602434028,10.008431045811504,0.06478692019170904
393,63.71851851851851,76.87324023490311,64.40544566168097,9.902361270373634,10.172443932070307,0.05598304524463146
394,61.0251256281407,71.25595406055324,42.29598607165063,9.696456832349549,9.85030134475423,0.05145915088283944
395,105.9794661190965,189.19988514371354,156.85411019839833,10.149083771718407,10.380844779632648,0.06847736810149219
396,80.33983286908078,55.137219957542754,32.428660844851045,9.797468875781613,10.044286504035243,0.06532271394832898
397,56.71875000000001,60.85378331379452,48.24056470524873,9.595182386547533,9.812325756583395,0.06543691026171626
398,65.55465587044534,34.85838354498798,33.668510796539024,9.751196625104008,9.947646057716762,0.06483731643999664
399,56.83458134785568,36.874957452232316,23.441619015882175,9.662173054762698,9.87017576578703,0.06016465688428603
400,44.71120689655173,148.55035947008807,114.14020544829592,9.850630840293793,10.061947777982095,0.05876261215734079
401,84.984555984556,207.76975614144143,168.88545532013123,9.748739034509406,9.959124426083406,0.07291905480694373
402,51.18004045853,48.57326520069242,35.006466127248274,9.850671178844198,10.202904796986967,0.061576873625623196
403,50.90853658536586,54.55063710216239,56.70044498045093,9.83850932949259,10.03532725043381,0.06507695129150856
404,51.45762711864406,47.86798978810264,36.97289907879389,9.684705836848073,9.91536221087056,0.06659642989652875
405,58.34454358270418,62.4956059321814,60.90909247946097,9.875145782135156,10.759128126718345,0.08434200159876831
406,69.18498659517427,52.45453979345618,37.05505103582705,9.639748334928465,9.819347695320255,0.06148259680265436
407,53.09876543209877,60.023409445142,82.15874877353473,9.58666548935082,9.744918395309671,0.055062633097155284
408,55.12575655682581,36.013711589677456,32.90552890204801,9.970342017667521,10.194317683667233,0.06318539386203832
409,65.29032258064517,59.34079717837173,61.70946638733595,9.871304799883212,10.106679411214255,0.0713843835015975
410,49.88732394366197,55.897769263758704,59.221278835129965,9.42308672014529,9.769326854744637,0.08795777201850791
411,64.5732586068855,131.97272578336865,95.81202767593669,9.752262847308518,9.985206062649047,0.06492473886364433
412,74.57686212361334,45.03580301263301,50.74524733426597,9.872271934040493,10.088652998689941,0.056960222677253154
413,77.08593750000001,198.88925889974897,145.47576257016814,10.053518006135922,10.197707286938126,0.05245192115050989
414,80.6469401479489,107.40967912834108,64.36912807755196,9.774230711007297,10.057408059948521,0.09070757374279197
415,81.55809267965077,72.30235299844401,45.70892473846624,9.823833529920572,10.032689490856626,0.059422904041070805
416,72.60485651214128,83.76766503788247,72.62510733637514,9.873124231536062,10.088581206055526,0.06380089124370253
417,73.34873949579834,61.50091740833983,83.99621522495232,9.95340669156325,10.73753720208416,0.08335023120746177
418,68.31,122.7656710759738,99.25729002383237,9.80815569390243,10.019777281375465,0.05514882893150403
419,69.13864701942398,100.9445313173684,64.81767679417176,9.790519107681948,10.026143273515396,0.07854840884942726
420,62.10957004160888,68.6603913431056,50.560627759397654,9.857569788165115,10.080807624010676,0.06352354904778677
421,67.64888588791356,50.236277415197016,73.82687318984874,9.929478264296323,10.221635429247627,0.07616507496315277
422,83.11815561959656,47.85308460642785,82.95153749688741,9.833970509497597,10.137753857493314,0.06829027287419139
423,68.62753036437249,44.32477678755136,40.70128797276933,9.708219003517025,9.929686562229202,0.06042195117437604
424,62.45255474452554,68.08537734298416,140.83803201717075,9.76830851202646,10.02943229436249,0.07307810561864203
425,73.45161290322581,64.99813848166306,59.65339353186702,9.79558464084088,10.019132402018602,0.05877183041512477
426,126.5,209.1503012699281,146.25738486841826,9.692955216751626,9.942929554899232,0.07529612387072113
427,84.45680819912153,53.31493430908645,33.912711435200976,9.751643472055104,9.942084104487503,0.06267020250659971
428,92.70229007633588,191.42250236244632,147.1469625675438,9.972953601129243,10.295036717853598,0.08345341231065338
429,69.04615384615384,49.48080163730035,29.92784390108344,9.811516097828667,10.012944007248105,0.05499586625282239
430,108.82720588235293,155.3336775039736,109.60580386821341,9.872208541753183,10.089122333997512,0.06891573297301842
431,76.00858369098712,53.374751375256906,38.94057515430078,9.968924557948933,12.099754008208553,0.08252927910097803
432,55.2744436952124,111.92729524799488,110.68055338054685,9.82126484655768,10.077393117863917,0.06883910374161328
433,63.33512786002692,50.607462424069546,45.989261244093925,10.277479790942255,10.511573066990263,0.06636686032202511
434,58.11638591117918,55.897769263758676,78.5119937893131,9.855240725357108,10.261109101873647,0.07206869284283919
435,68.4169014084507,51.02744856663259,39.44841754612476,9.710351927083511,9.909794776828374,0.05769945450718984
436,69.3709677419355,40.973996470262115,61.95262773529049,9.90949223483398,10.130535306046097,0.06298314905763415
437,60.14909335124245,50.31869958286693,65.632332667272,10.38705733784612,10.635812692446834,0.0705974434502488
438,65.45790554414785,116.36048572236953,91.37764798748996,9.58970382095319,11.353291999928071,0.24747798990340125
439,54.35809018567639,45.42454271859515,56.84815646010129,9.70695546356987,9.949259474824254,0.08082499668046865
440,50.398406374501995,126.26019071145059,130.7673326909231,9.727890744828223,10.021164117114536,0.06786676165581303
441,82.8183632734531,51.404040011943906,45.384232603321756,9.761601635236072,9.975455439443898,0.06597140935956451
442,70.58015267175573,51.651660749363124,48.946890478889806,9.957649147136351,10.163516880660467,0.06054088563149612
443,72.04411764705883,36.28745118703471,42.64480989190125,9.740594443868767,9.937886164903226,0.06711526806585347
444,73.40228341168569,51.17098597694366,41.57322287034515,9.991589504935764,10.167580907816722,0.06247827043801787
445,63.71458551941238,162.47199749418675,105.6480778304243,9.682324437813802,9.900970294582518,0.058882498611866604
446,101.84664536741212,277.8068520285467,162.23874977986034,9.998819356995366,10.25590905778937,0.057173205648648674
447,69.79310344827587,38.63065434191466,31.33957351013383,9.703222222203923,9.908882794294747,0.06352009786587316
448,65.34437086092714,202.1872101873888,128.92316842270716,9.997547308521668,12.056874988555313,0.12245658517817586
449,73.6992582602832,43.24737651706721,35.26665073857932,9.545423186842704,9.750886855488819,0.064625667810634
450,51.111111111111114,50.18743318642343,33.77076579176891,9.800502050175455,10.02748090883423,0.06986215180860783
451,54.85210084033613,38.98790212775268,30.403227150549153,9.901721933312194,10.090581064108353,0.060597171254816236
452,52.95348837209302,,177.74357790819556,9.907401401290256,11.128991031255806,0.14125916508871933
453,68.0952380952381,36.1980608608399,32.31457648059934,10.167643722283216,10.386759549047078,0.0623055328395329
454,86.0955223880597,369.6115978683936,202.035540539696,9.713170403669531,9.8952715179879,0.05550793243599605
455,60.456506110711715,118.58465952404806,109.12727691559816,9.897085331157468,10.173053766018505,0.08485820277103095
456,57.3216453135536,61.4644435982275,45.43064664526846,9.71181301653881,9.939386892688566,0.06516942513718639
457,96.48305084745762,336.0514063549748,199.1857832828907,9.915918307373156,10.119629894182722,0.06060894640805265
458,71.59232613908874,56.40364174013247,51.34456020998115,9.771301998033762,9.986094590947355,0.060017409748781024
459,67.25498281786942,108.04305338106192,81.2666938132432,9.876676821255195,10.046795700704834,0.06395302375111316
460,65.59969673995452,51.21964302690066,59.89272001023279,9.703886115093091,9.890697194474233,0.06259076500992918
461,109.15725806451613,32.57562781391829,21.297381412433303,9.799812189070938,10.017443218516796,0.0688045256814869
462,82.76190476190477,44.36290563484929,44.41918673023073,9.614491236765865,10.311893425392583,0.05888485901493451
463,53.99007444168735,144.08984347199222,103.4255588126497,9.598952886498388,10.583281848489756,0.0780539528857539
464,46.99057873485868,54.64147919190441,37.65063120846648,9.781154983761866,9.986383487166066,0.05851994235842205
465,82.32838038632985,89.27426127640787,67.98566967611703,9.928303892778928,10.181951720124554,0.06917840904873297
466,69.963687150838,50.47493090774612,44.04066669265834,9.996924711673124,10.280750327033862,0.0695616568803372
467,85.4065639651708,69.68676202420497,41.07231475701486,9.755299203195673,9.949428376775087,0.057126148184636114
468,77.94778067885117,117.73309942466861,117.42273983526596,9.798760334550698,10.246539324738448,0.06735795489865955
469,103.70058139534888,43.697296315617905,41.5154151785299,9.989067587836317,10.679716598955586,0.09667229707597226
470,80.84023668639053,65.24299031862908,83.12469578720992,9.898658901257043,10.115722349852465,0.06665219088445391
471,66.26677445432499,120.84096306624897,90.09023127035395,9.705375548138948,9.910436299429202,0.06223881372269086
472,62.75409836065574,87.27036429177717,109.71786833855799,10.028678378601576,10.44549104246743,0.06713881566955064
473,86.65547347212893,31.09864792369341,20.660181252288364,9.643791116843925,9.882673310097683,0.06577333109725161
474,66.7124132613724,44.52970056514682,35.72358885622701,9.74514458462331,9.910879556236996,0.05960391419505535
475,73.76470588235294,33.40530651100857,23.35130468134351,9.866791967156761,12.65818042604293,0.21114754707900366
476,69.65182186234817,41.257556922673224,52.31341548477094,9.699385210195327,9.918651816023372,0.06017952993455051
477,60.338912133891206,135.98425564750065,97.04101343616061,9.763576929895637,9.964679453625983,0.06494900399129719
478,69.56131744919412,74.29606185661277,62.55679471499398,9.72307712385611,10.013771110479382,0.08516168681234146
479,62.584943371085956,59.08734112247961,63.60173362318723,10.059557487380843,10.246681324683077,0.06494406814751431
480,74.15212840195396,89.44701689423206,102.57581797538737,9.737017148958845,9.903396127206266,0.05223435807836747
481,66.30555555555557,49.282249249377365,58.30287476201025,9.845271013173766,10.051079030583086,0.06765963353380565
482,56.63424383744171,40.589353205728834,32.058342600722035,9.605224054456489,9.863384987469816,0.07295151042365786
483,63.52863436123349,101.05782607820687,63.98400873405325,9.716506341900727,9.930276781575882,0.06585225122133369
484,64.44339622641509,34.04572210332447,32.86479918115012,9.846132885895708,10.098234717504292,0.06909979159198566
485,58.3452461227242,41.58927121020963,40.207167365159776,9.671534961150035,9.937507058461968,0.08113038988201465
486,65.64870259481039,57.61810172772032,40.13377926421402,9.827403426838508,10.092090714600014,0.07131850293559154
487,82.05405405405405,44.1910667490077,40.29825385440091,9.738920623762876,9.920315977249683,0.04987735161127073
488,67.98529411764704,56.31964520545571,55.641914329781564,9.622269979099443,10.054621559838326,0.1238755503466653
489,66.90499510284036,88.09656850758482,83.66934179435997,9.918190741989,10.141700265756805,0.06213987391566733
490,65.42222222222223,31.494825015399,28.960904366831382,9.870780182377079,10.031102906229822,0.055427267614298274
491,71.29335260115606,76.29386631380461,64.56618667526301,9.724024634464792,9.94283835481047,0.06350155409066459
492,81.4590282813633,47.58334114062025,30.181944652465905,9.747993106093777,9.987776536212607,0.06531363302514288
493,67.21389645776567,36.25326611002861,32.440203510730605,9.937075825634421,10.18349631891328,0.07253365091170812
494,61.77241899020347,60.457806546383075,48.46972077629432,9.873052215661627,10.104697188263318,0.06480254685379624
495,61.70731707317074,75.10057717428799,50.10053581510293,9.671872521940973,9.881963789061825,0.06365868090100651
496,80.64673913043481,106.72812283828273,73.42416522946914,9.678045413975147,9.85118598488791,0.050858265292722624
497,71.12449799196787,112.5692193058963,81.79477792086647,9.895589434531598,12.059639912832939,0.20687060349403563
498,75.84804928131418,39.24635468911556,32.37839923704815,10.039173271213079,10.205941907071894,0.06580612055484525
499,57.283018867924525,71.30576598838456,49.5480767215817,9.837942235183071,9.991876085503092,0.05301456888144442
500,72.34127594158339,68.46050622801891,125.29162314824397,9.871632500647143,10.016283235673209,0.05241698005896414
501,70.03648068669527,95.33955559771178,81.63839805560994,9.702460618259144,9.931297492114897,0.0656291027059673
502,43.043478260869556,82.40091354738614,114.07041276370678,9.854166589579897,10.771748531900837,0.08576865935055054
503,52.558044806517316,39.1284384846311,30.961767581861864,9.894055866349802,10.133271267058765,0.0720322651695264
504,58.50304259634887,33.82029517422621,32.62822371824033,9.578769086248988,9.834052658194503,0.07261832666132294
505,57.96980461811722,46.19357389650411,54.08471618110359,9.707526510660992,9.928580049671458,0.06603424169306568
506,100.15670103092783,51.72833383407819,37.98381141340456,9.712912885724327,9.871063337600187,0.056755065063318816
507,61.69686706181202,74.55743635221498,53.35942964203698,9.635851622016851,9.89030651012329,0.0706263926877557
508,50.191036002939015,90.4619976713564,85.04121171688806,9.777001311174633,10.184466212261851,0.05424873801862457
509,62.99598393574298,65.20315421807443,49.03451363771366,9.773864820545622,10.288435029549966,0.06756717097543691
510,65.07166778298728,63.5774355507417,49.92548595315745,9.815546286385285,10.054623339368097,0.06394277915587436
511,64.15616045845273,53.34399669026309,55.235469176187564,9.667905805453255,9.884316955222,0.06913471972812521
512,77.87427745664742,33.30833879843417,26.43005616092907,9.847316172568998,10.175248598322542,0.06538904420098676
513,74.6902286902287,34.71581287168695,46.33000784181523,9.813651892602858,10.02021063012951,0.058756352140442884
514,61.83299389002036,49.08786789501547,42.9510495723401,9.802238740133141,9.993737099084434,0.056142272536675794
515,47.4375,39.52569169960475,85.38525294345008,9.867879140397172,11.914776858119637,0.16571330920012817
516,82.25615763546799,41.09685730514122,53.881557093568624,9.897251527822627,10.234286741411319,0.08425611401033095
517,84.21337126600284,190.6305284664015,147.48125885137327,9.785181732425409,9.952696007651461,0.04588906802787017
518,73.6992582602832,32.49906924083154,35.87664044245609,9.970449640792602,10.263669260771655,0.0706025617816008
519,125.37053571428572,222.982664833251,116.88562646375327,9.920436535395012,10.176285318014953,0.07565484743697974
520,59.33432835820896,50.86258232890402,45.27846254464957,9.98685703622973,10.218735846478337,0.0633093100142617
521,70.93457943925233,99.74597124807033,80.22839181891082,9.983208034992112,10.232224670513439,0.06110849815818869
522,70.5109489051095,42.559834154795674,35.17655138830607,9.837732163423528,10.002342573440906,0.053097809726328445
523,68.58823529411765,75.75611442687033,69.11943686021928,9.874639590604737,11.811903377461423,0.0989510571535307
524,86.65547347212895,70.73200611373444,58.34694123732387,9.507970382234689,9.741696194138825,0.06494951843229407
525,81.97200000000001,53.029280098809245,43.079897436867704,9.867914589352198,10.090889806926675,0.06268778135756524
526,54.09679572763686,71.16068964608112,73.96617590725529,9.684538735010118,12.818963096893986,0.14445226505774067
527,75.00208768267224,45.391614448433366,37.79824126653222,9.71269938806383,9.92968800376503,0.06348966829640397
528,63.60189573459717,71.73308710896025,63.53756073466069,9.73134948884484,9.948036864346712,0.07470385828054737
529,66.73691556175855,92.76735060043029,114.85214301021553,9.58126635318453,9.787506309470695,0.0641042681515816
530,68.58125421443022,42.69262647172497,26.35633048632959,9.799909131612218,9.997882524382112,0.06518468036500884
531,62.17064846416382,95.80394975131087,119.07923242770235,9.732337646088647,15.37281375108494,0.22703752525110718
532,72.44617092119867,168.93091356863877,139.27656559363453,9.748626239688587,10.658907503941938,0.06420623087819953
533,54.141318977119774,39.52569169960473,27.643751201209085,9.703100870991019,9.969753510645523,0.07456708794033659
534,75.44123572867697,44.85201673925548,37.86306719035847,9.742696867283865,9.94901489281147,0.0663170260773389
535,68.84353741496598,203.3337953701958,141.12111174262608,9.772360642226818,9.926019554704588,0.057914450454467394
536,71.02941176470588,37.7681061622889,26.86702936955464,9.832092095512264,10.18902813137854,0.07296041713864874
537,64.65827686350437,116.42094843661982,83.20417834982078,9.715849753544399,10.706162509317734,0.11040984992263216
538,74.7228590694538,34.23025311400943,43.827183593801635,9.830234623693626,10.007983742581281,0.057495788221443404
539,53.661454792658056,56.17110961880827,52.1935676500544,9.901258530135342,10.15257802303738,0.053957590499805655
540,96.8936170212766,220.0697376612657,152.9405371046627,9.678683343733985,9.864971485180178,0.06517688041012694
541,56.60338983050848,112.05402566686932,97.13730787842306,9.91151028705058,10.099063694006224,0.062020647692967064
542,82.59287054409005,171.531180056542,129.4017822152697,9.900371406687942,10.262003660929887,0.08561489720957706
543,57.45950704225352,94.45338951318068,68.8481783659307,9.80782547943645,10.105622873652099,0.06497643338203489
544,56.22222222222223,45.411562423225455,36.358348261177795,9.707238310978825,9.90975361050191,0.0594331657392303
545,80.19622641509432,295.45289303806425,220.81098923592404,9.850899834558655,10.269346824633425,0.05990078356192761
546,67.89452603471295,33.70762313922688,24.33797574743228,9.916251287463515,10.1231084186319,0.056093097590304675
547,83.20134228187919,128.68632882292258,134.9344287912813,10.0527512322126,10.288452837801731,0.07869416089920353
548,52.177458033573146,86.93709662512974,74.22237057886332,9.874400614680019,10.066918706384426,0.05630056810710115
549,76.11142061281336,58.45928639426498,134.88087551986132,9.706755984016512,11.637575616132592,0.166309453270388
550,51.318458417849904,71.64640056719095,52.49035668311154,9.685786217087802,9.952727144703646,0.07007763709781627
551,74.83810792804798,31.715165186220094,26.411142645179183,9.865300105123568,10.073328797852355,0.06409898133871962
552,61.29205921938089,49.890447543138976,39.76650401261288,9.805248174826906,9.982470458669553,0.05125073595156437
553,59.73134328358208,55.897769263758704,78.37879428829153,9.666638724447619,10.013094752117507,0.07283149373987467
554,75.96906278434943,57.94170047548207,42.29662657437918,9.970849667205446,10.168535356725787,0.05857744145064057
555,84.50301810865193,42.989106606581124,27.056284035128897,9.671486764516366,9.921715200652123,0.07076387913060572
556,75.20366972477063,49.19352421160458,52.19014337571625,9.80405988553685,12.04126897273599,0.1286898983060385
557,93.05747126436783,117.04698421964218,63.6086620038722,9.848027750796469,11.588046620332275,0.20551600326530925
558,77.41695382494831,62.230979736044624,45.86378322125426,9.612203565449954,9.785958228571934,0.0555260908227535
559,56.26475037821482,49.1054547593385,44.09341088558985,9.73525992385564,9.918012195894631,0.058431254088413015
560,90.85541358439812,34.48859831198791,25.964233214448583,9.794188336490093,10.034018621475745,0.0686935077412504
561,81.73846153846154,225.33111167967158,175.31535512433678,9.924978695682812,10.586466463986683,0.0753217349167201
562,70.9977728285078,60.5250192481246,46.41004331239583,9.883865843829541,10.082682248889887,0.0653331824263044
563,81.2483745123537,35.10982323577826,25.023330769773445,9.77123437095917,9.965021400323733,0.06210394420523977
564,54.40477863668306,62.87706790321875,47.77504458628982,9.718821791601531,10.00356877767366,0.06523316882801057
565,86.2863157894737,204.01164095752864,161.63498985456874,9.704231092915567,9.947616127857385,0.07357154706273786
566,59.4271978021978,50.84155560423722,36.3242517265344,9.949760081244008,10.138624075430815,0.061094911331940005
567,69.27380952380952,82.58745172438965,72.70732359960877,9.793820169520492,10.66187869073435,0.09661887415220495
568,69.62334954829743,71.64640056719094,84.04958738279142,9.840538088494958,11.117562764904504,0.09580576629419828
569,116.46031746031747,261.81109287533144,161.63518691970663,9.854907757045025,10.092543579896395,0.06629180819809988
570,59.84946236559141,56.422642462160475,69.63852846784415,9.797242810397478,10.013377151404928,0.05398051012615669
571,71.69199178644763,47.207487803410714,37.44087675629991,9.767816086496088,10.089700034785839,0.06731623136634758
572,70.72383524645511,34.56421471127297,22.89911908266791,9.880370350462416,10.082182657484832,0.058880254914397946
573,77.67736339982655,73.40485601355168,62.31401328724317,9.624500263051983,9.876795139751408,0.06804109907444027
574,63.92647058823529,38.22941310867001,35.18992072872866,9.914678680930008,10.11534403584531,0.06428768636667735
575,79.5725806451613,59.75722893426517,42.34839853202834,9.734047239356016,9.948451827776724,0.06712348453068674
576,110.6875,88.3821334980153,109.19864260764379,9.768932902169395,9.960259233724374,0.07041697564743443
577,56.8345813478557,47.503969373702006,35.08891301684134,9.695560322972725,9.890567016313206,0.055834956965980696
578,69.63302752293578,65.27453152923083,58.09066583675519,9.636086299092538,12.026014366817067,0.21659266909068997
579,113.20677966101694,137.8095423021873,136.74408899093086,9.971090225185124,10.221235267689387,0.07141065976571274
580,74.1726907630522,77.10606001791584,68.64226105036755,10.139293833927916,10.47642895404298,0.08214175586646331
581,62.213114754098356,39.525691699604636,191.3631373424538,9.819462248003319,12.074115858401083,0.10023004421070034
582,71.41737426518618,39.78715992726128,64.31352620735443,9.795057963187759,10.030209873825562,0.06191883424729508
583,85.56808199121522,48.95838239409743,42.44761580910226,9.83547215525048,10.054114238647506,0.06186456425891908
584,73.55047106325706,96.12373320685109,69.50029520464848,9.916174856261357,10.178793123961345,0.07159915070306525
585,60.53010164190775,86.8314493669688,75.41961172256293,9.807721554577157,9.987594595933608,0.057256583716667274
586,64.82997582594683,54.15958806677266,36.367172317806265,10.06357324245329,10.658450097495328,0.07451420376328576
587,54.03223640026863,41.0177487480451,35.40630164954647,9.97689690284666,10.275768824321371,0.06397845545147988
588,73.74898785425101,74.31682807435718,43.57297943123502,9.837180834913033,10.109674281509271,0.055400862584603625
589,66.9402985074627,77.46702664128242,70.05949924349916,9.750816492085965,10.0075935605608,0.0739494381230041
590,87.79287155346334,34.29730558397726,23.240549461844896,9.830676469120549,11.587485190886133,0.08759579128496853
591,62.2565445026178,112.73580351734992,84.95067731342625,9.786437074491364,10.029457198961508,0.0650025766372285
592,83.09791827293756,65.77472682512598,48.729527905180866,9.881920955167221,10.110311332832383,0.06727790404319196
593,74.47177419354838,45.64033748534591,43.7066133967417,9.993247201167232,10.216565838291237,0.06113155802989651
594,67.65129007036748,60.122273434765425,43.182573960031206,9.617539994509201,9.788398598959567,0.05526928966174578
595,110.39999999999999,208.35655912275394,134.6438302764802,10.210208359524687,10.42128093153151,0.06417848524966244
596,72.13222591362124,50.9490098888241,37.61574707321964,9.63125978986378,9.837205466151907,0.06982096678329924
597,72.62668463611861,38.087909551756184,33.271842782350234,9.677630091611691,9.849512832098876,0.05283506340351792
598,86.85828343313375,39.29249974290186,52.79814154089135,9.916250006491593,10.084925703972253,0.0594323116454928
599,71.64457142857142,202.5863054046902,154.21583902973893,9.78932550688415,9.966877590533464,0.057404316149166495
600,60.01635991820041,140.6399110044826,112.27844991549966,9.802018051716871,9.974253189384731,0.05344651955180529
601,54.25833924769341,50.34272177351425,53.04987191457277,9.891591424826048,10.100195250131303,0.06745234201524006
602,59.335504885993494,118.3643806224677,124.42573628144994,9.891039029302458,10.746576614418851,0.0859802417408548
603,52.996312684365776,196.20667102681492,142.74968942457184,9.85462660014839,10.040969774837581,0.06615118015441696
604,70.51094890510949,40.65522449201809,57.752134448794756,9.828954902260016,10.047786696008428,0.06436626926411883
605,67.93846153846154,55.44514829825039,58.55055777910736,9.644531771188465,9.85861539612566,0.06430798788208233
606,55.07422402159245,75.39839915765708,54.557143784208186,9.842635875854107,10.014402970744715,0.050506126131111995
607,71.60377358490565,49.9964847457451,96.49451079631383,9.74780481618905,9.967558880080238,0.06156402345138774
608,58.38461538461537,,0.0,9.74666646220349,11.359095902593538,0.12440846332041704
609,62.398299078667605,90.25616805841776,75.34872695753026,9.631093101209586,9.866048207980727,0.05789922922315857
610,58.65533230293663,62.23466280530691,84.27040614220667,10.080095622718048,10.79587396406886,0.0831355600370043
611,79.01917808219179,151.23420134157305,101.44527014967014,9.814592516035342,10.17274167743921,0.10314236275084653
612,106.38583270535045,48.68008857248773,37.626962435957935,9.810136777054684,10.03342451835525,0.05717490847826795
613,68.57009345794393,64.83790768891107,156.1223028654551,9.685951489867739,10.505850102175389,0.07723775124818057
614,76.01517450682852,62.98965003079808,42.95226033546798,9.83368310629201,10.34609253113689,0.0688488137004811
615,79.65853658536587,61.0363633319694,60.0307323574395,9.936277864255016,10.115083587401333,0.04947369178500953
616,86.59731543624162,371.4854329346952,220.3275097043875,9.889901629750184,10.389537152927987,0.06983042100371822
617,73.2,53.74704376680513,44.061426812674135,9.730751961829574,10.099176019091491,0.07733197857512385
618,54.51851851851852,85.2800338610367,105.09178987848709,9.777681298782346,11.772510039115891,0.2144969617744432
619,67.15576036866359,79.05138339920943,62.87959881624667,9.79733029049665,11.694432335982018,0.24425079950062434
620,88.64233576642337,156.27190379299662,199.28897262943383,9.716146725571575,10.210617456600954,0.06678341009795584
621,90.73972602739727,53.330585251536924,40.933097897353655,9.827825105704411,10.338980882319746,0.06521185108080224
622,51.950718685831625,50.18743318642343,42.782795660821535,9.91068161677126,10.141136536762605,0.07439706270993801
623,67.97014925373136,94.4069969888491,64.15983643538227,9.631859755192448,9.97088093557482,0.0755184053593856
624,80.85219707057257,72.39171578662902,55.18577867764112,9.782122871910254,9.969288821718264,0.06624781370685276
625,76.79430097951915,120.7163640376338,74.15023851076815,9.881660050212714,10.120814309254763,0.06337043755541172
626,62.22983870967743,51.78720423460758,40.02707240712894,9.85765830307741,10.061086151040241,0.058316475628705455
627,72.38280725319008,34.39286805836491,28.122988232066113,9.938114731218644,10.202733848071441,0.0761803548887195
628,68.56845031271716,45.911202400340514,45.399346804329774,9.788958853653094,10.05295848717155,0.06273317409820767
629,71.46241457858768,54.45809990728632,75.35856481831397,9.77924322771508,11.811078578254458,0.10387936268431718
630,71.35897435897436,56.99606222370308,66.19116962341886,9.693328785230632,9.901854383275404,0.05875161585338787
631,62.140350877192986,115.9120814119777,77.69534139111724,9.912756776872472,10.102212079130979,0.06049703122986157
632,94.80916030534351,46.032107224534435,43.8932739862431,9.70521785598641,9.916906978838387,0.06624766086704889
633,76.5725971370143,44.43589447704889,32.07010586962521,9.83770244326602,9.998126913124327,0.05462307199474153
634,51.808873720136525,105.17905450398551,111.16490996383583,9.797203669861249,10.531784828580049,0.06336344294407237
635,54.96610169491527,141.31531340659066,101.03572714032231,9.617439338884815,9.807684287607767,0.054664406283554706
636,50.24738675958187,109.59028168388753,111.11604211419716,9.784699499413023,10.121154021553572,0.07401826491148529
637,62.22983870967743,80.84268224844506,70.58922481122957,9.872589918438264,10.042546319891915,0.051428241150038786
638,81.4291390728477,36.70785695851129,27.9893239636949,9.940038331653835,10.150548427089893,0.06864780758211449
639,67.49125364431488,71.35039539300179,67.75466129550863,10.037206953725805,10.63203387148867,0.0985692636414167
640,75.34004024144869,83.01297620919979,53.06208776216582,9.981497672751875,10.17656044596807,0.05770058634705739
641,68.48120300751879,97.71012499467282,136.44476401322783,9.745028947551603,9.985456925627338,0.06265694730659979
642,85.49543218552357,86.76562546331348,75.54156075396025,9.82415196884136,10.435365331077268,0.07119883228494425
643,52.52595155709343,45.282368527231625,32.83250538702797,10.109708737404832,10.350006038663784,0.07129985209787176
644,72.20756756756755,85.74326395994314,90.95151112479087,9.83939803561936,10.303139992886154,0.07983261102078423
645,82.05405405405405,43.24737651706721,38.0284745461544,9.886969111589007,10.810230228648827,0.07637418557502881
646,75.9,,0.0,9.933594441019597,10.16293168576275,0.07381020204051025
647,79.24593967517401,148.94421882542903,111.15883720373385,9.825533933127486,10.004924238864778,0.05362320603581128
648,76.11142061281336,43.55519091061975,39.46464812387227,9.782640316574065,9.981665570526001,0.06191171393717977
649,49.5219707057257,94.60742171505319,89.11895422850128,9.708548968518363,9.93403501230194,0.06542568195427806
650,72.71856287425149,36.93568427411539,33.549981534030564,9.748906350453144,9.956175276152068,0.06521214002615204
651,60.13386978785663,124.87437053438276,98.08405389901047,9.842759819154839,10.010491529017346,0.05573463631812021
652,124.52343750000003,243.95310070412074,141.26353168425214,9.593692995041353,9.783354920169185,0.061309268947482246
653,57.43783783783784,115.45233906914339,99.4173735836195,9.747152219284091,9.928225602238305,0.05721902046268396
654,65.13217993079586,43.89547101174615,33.73994293611942,9.804368061744796,9.990377511389365,0.054176697745458184
655,85.71584699453553,65.75841162536484,91.57110478630868,9.655846571167764,11.133145872137511,0.10606101176884858
656,63.88376753507015,66.02473786752464,61.682550755407256,9.60627245585672,9.821415638112269,0.06398819075099067
657,72.45823389021479,64.54518426306133,54.2069079767344,9.631100375949252,11.03574206097404,0.08427606225988658
658,50.39430894308944,43.448306845431226,45.61657018826714,9.722976040807797,9.933789262927064,0.06836566715948203
659,83.49000000000001,98.68238899116734,83.67966690482007,9.806973924978793,10.251184349485161,0.07566623074350663
660,115.79499404052441,196.77965661464285,127.33569569761453,10.007780833121977,10.206876290790923,0.06141571195744712
661,54.214285714285715,,237.15415019762844,9.760759207450715,9.936068497388998,0.07067601075942943
662,65.48656294200849,71.91443891657585,95.08499722912265,10.020601280927627,10.258695370162663,0.07320938708629735
663,63.703217334208816,66.20048943505407,57.04988326901082,9.75455483352128,10.031377521256372,0.06675109777860225
664,49.03964757709251,66.5316530853892,46.121083913019895,9.887006222565427,10.120693596914101,0.07704642138984252
665,79.62948207171314,50.03652999425231,40.92280991980495,9.757864380466463,9.937830063247,0.06434807150429644
666,67.68859649122807,78.53861225779707,69.18949521653707,9.680368025546999,9.894220905645904,0.06927200165232882
667,53.67751060820368,52.05841026139404,62.26519736763705,9.803980616768602,11.411479606707028,0.08393654504132403
668,68.3508064516129,49.37716183931913,40.70983776552676,9.61016425047862,9.83416291583277,0.06077721286929174
669,54.69340584636303,49.93635666055588,39.07993886665342,9.762476682021818,9.926909487376353,0.05368977853873887
670,77.65095285857574,124.2537941491503,107.12582743898479,9.630153380688757,9.86645610157937,0.06546783546341291
671,80.94598337950139,112.26665539990081,67.76221730927257,9.726177938938319,9.89972603244285,0.05350847649505069
672,55.98658843252305,128.59746726635544,101.19865125405816,9.633790387170835,11.181167660220913,0.1227221058283495
673,60.14909335124245,46.42057071262487,35.15680783386335,9.812183978950024,10.02907434635956,0.06095462871556449
674,47.4375,86.19460992777933,74.6315543928801,9.561766320879812,9.841537255297853,0.07170982065629371
675,80.29722921914356,76.78149109543591,65.20048212192273,9.727093767016978,9.88345990131511,0.04746004959099659
676,60.88511216859279,45.24517561046168,32.434430058043084,9.774185477306094,9.96570640758086,0.053806857558125254
677,60.37500000000001,132.47039046013919,84.13136321711657,9.955987018902846,10.126468073050813,0.05506337601886161
678,60.34862385321101,274.6558217281831,150.1865495315107,9.719679195010734,9.938177110646093,0.054096227964485974
679,64.28380386329867,81.98019887336142,93.28673970177753,9.897446074739229,10.125238727770267,0.06824876728548873
680,68.3508064516129,41.28323856656861,47.08411288828954,9.757096469430751,9.939374723590486,0.06475275683279264
681,58.78125,70.46857128373057,101.81904080425852,9.367988940283757,9.536191157139706,0.06219928320246351
682,100.83857142857144,63.92154466898339,38.60789646538574,9.896745469591052,10.122822151790526,0.05848191267011816
683,51.80887372013652,75.54538769203643,59.81322510048045,10.0086252962566,10.187486127629834,0.05058779486888608
684,59.708,46.42057071262482,56.464949435802204,9.40016729789637,9.670938370514074,0.06769828652427191
685,55.97830802603037,44.460801095492904,31.935825432901606,9.678929779550222,9.868637099536882,0.06711024722955437
686,75.9,229.79354709484005,146.77541736935828,9.572111159359366,9.824012066132264,0.06961004096142362
687,65.64324324324323,68.09731795642965,61.51136165014194,10.010835142492468,10.186052306437242,0.062498833094824124
688,67.5576534052596,35.69116592478971,32.43333252856866,9.820507802177222,10.072207084738725,0.06595076405896892
689,96.31979695431473,316.45247274700546,207.434204156497,9.938176407866745,10.161284015640412,0.06756184823393331
690,47.811023622047244,280.8828142994446,220.73426782301064,10.018647302013063,16.36695529745778,1.0445115744948104
691,65.2026845637584,60.78582820235325,52.96882816796334,9.89666600519297,11.834330661910203,0.09832368916282963
692,74.62222222222222,31.593093038950727,30.136813146517397,9.95095438240059,10.191245788272617,0.07259914060695415
693,60.18951612903226,57.793144465351546,42.47569500675922,9.859691624776831,10.049364521832048,0.06352775137003201
694,73.67952127659574,38.69347867085221,35.6780843782242,9.977121925920978,10.19196776586208,0.061046936148860656
695,55.83923705722071,71.61700717084938,49.92356288970846,10.097529289479674,10.329127696749058,0.06959943782956442
696,50.20830401125969,121.2420612202874,90.50517265048529,9.951266325644804,10.241864241420792,0.06723525955043677
697,68.76845637583892,129.51431176428855,100.87210175348977,9.853024819276122,10.006259203298752,0.05272733410330525
698,89.74148296593184,264.3931421524532,205.99791609381697,9.941597540245073,10.115146772059944,0.05555515998586961
699,73.40228341168567,52.654510172358,34.75014760232425,9.864426836695358,10.046987182976688,0.056117119302259356
700,52.59374999999999,50.818746470920395,46.31962426562485,9.903073507583533,10.137407782679288,0.07087359089537659
701,98.84651162790698,209.91502155881201,156.4047316145064,9.862178548387602,10.086068425745506,0.06730653638620003
702,76.65647840531561,42.8144316449853,41.56371369787635,9.725811849116305,9.947787288025685,0.05967856700142684
703,105.6,217.09166078108143,177.1367366960397,9.530597828510249,9.782272826731875,0.06463992811560552
704,74.87432432432432,30.898654544291368,27.956750540745226,9.942291584371974,10.119064086922588,0.05192236898403709
705,112.89243027888446,225.90814492071473,142.10407777735347,9.81033149713154,9.980405050960897,0.054908820895501885
706,53.779411764705884,104.1433174731161,75.08959339632707,9.942696009624662,10.16326330034181,0.06357022674711035
707,58.46351351351351,47.82912011885211,32.24277910703189,9.725122023393228,9.910761269702668,0.05713782740327617
708,66.66891891891892,33.1433000617557,22.752553279257732,9.624191174872555,9.863711725574678,0.05168913386976222
709,61.59256128486897,55.299914970224954,80.87874072549813,9.871455065529945,10.250060594169641,0.09073116575199708
710,75.07723577235772,39.250247983573736,34.149866330004826,9.583928256312962,9.745597649699755,0.05146205581215287
711,55.95844504021448,48.10913987748488,36.190235895117944,9.591026428728455,9.835025648269855,0.06385190280864123
712,71.41129032258064,45.88771240013296,35.153884621735465,9.779608700303324,10.048805014242559,0.07259491909391559
713,75.49193548387096,55.8977692637587,45.28473110613533,9.737828466250111,9.95138384830692,0.07002957153004044
714,65.34437086092716,87.15454424832039,116.51926744607096,9.774665422774852,11.127255503708245,0.14575626578873324
715,54.751060820367755,113.07162278091913,93.62600093615691,9.936937036657218,10.191748741201165,0.06327462319721767
716,55.133171912832935,65.54594447342689,67.49011053947666,9.5028495089503,11.332664114330472,0.11031773175328637
717,76.42708333333334,141.46401222746886,149.2420041454792,9.825216223379039,10.449774638315905,0.09324047141208475
718,77.70583994232155,74.02458965373599,55.03732245154177,10.040257854645747,10.237767344365965,0.06394012091804208
719,70.0789277736411,115.17874336537838,88.0804202958265,9.907176438206681,18.5154770540448,0.2324824335785134
720,48.90201342281879,84.92986168073195,98.13943949564941,9.726350188083531,9.937649297091287,0.06119440277693816
721,49.292988929889304,90.8722582689502,116.94272702343048,9.737857790618888,9.923451980204355,0.056915556930253026
722,75.04719101123595,155.84080806468876,165.5331825082639,10.084392408168345,11.913709036752792,0.32005653862837335
723,69.09375,37.370896542873815,28.94895674918361,9.749314114338901,9.942111171532062,0.06793951656761103
724,83.71776155717764,66.83670582247373,56.67510234712168,9.474470966441878,10.57803307662953,0.19180227654327295
725,51.1685393258427,51.258866754175735,53.35561721032038,9.833207892099708,10.112849087292599,0.06858871408897574
726,72.96128170894525,40.07852542483175,32.0288804255925,9.691687703595111,9.924030021841522,0.0726199028445344
727,77.7684630738523,39.00214948877195,32.237192070443164,9.732973351540025,9.937085804117254,0.06532219378779905
728,52.60938628158845,68.21200992263049,79.86634566349629,9.926396676891567,10.150087432012846,0.06873312548555917
729,111.61764705882351,251.15148274977932,171.10561914556018,9.928679537199606,10.22329045430194,0.07559499616746641
730,65.0281124497992,49.797690778554326,110.08338661711163,9.84433967789463,10.945822416924788,0.06875618309283722
731,63.1622746185853,88.38213349801542,104.81556312621242,9.786744544068874,10.041533353974986,0.06712227138633864
732,104.12642905178213,42.72280860803061,34.75700379212765,9.97823078743706,10.224305082723387,0.0726390299921076
733,60.189516129032256,67.26979789697741,55.4544170605611,9.744097230101454,10.015163851692465,0.07358307148692336
734,69.13864701942398,31.66476762508318,28.303252322575766,9.755483513960792,9.988700948006363,0.06900616709865774
735,78.95637583892618,154.29250165194202,164.571748568278,9.794961500095093,14.294801418854338,0.13848921980845066
736,90.3847328244275,159.33315708099897,107.84867209423759,9.717809998207539,11.86144584760538,0.27122493442735635
737,63.83606557377049,39.183471477347844,54.49105488755345,9.817309092227383,10.03465591114668,0.06312616912488718
738,58.9106830122592,104.01278927766221,105.1473879768559,9.841710815574627,10.08065412885069,0.06251163554296861
739,67.93115318416524,72.37564480945534,86.97193518022377,9.721028241364035,10.321556014743278,0.06513636938730061
740,50.6,,0.0,9.901450469935812,10.083691223111789,0.059187835743402965
741,68.90650406504065,46.41177810515641,28.131954498416256,9.765477727958128,9.962857766632379,0.06173641678162112
742,66.08841259209645,62.30000105196885,67.20949530993298,9.749381757499856,9.960108695189739,0.06789175241282709
743,57.55989048596852,155.41344600498468,148.86594612280155,9.792068627598425,10.01765047940906,0.06513654785623776
744,78.3671128107075,130.41300354983474,77.31076519696029,9.70491028833023,10.011045099424859,0.06089269700174808
745,72.38145695364237,40.35210215313728,33.57243050377834,9.694797549947538,9.896304445068623,0.06054282507515977
746,74.22727272727273,53.83440510727265,39.68610348075849,9.830398650101683,9.998694696595711,0.057619764644828333
747,70.33174224343676,154.7388781431335,152.41752843093067,9.776288550158194,9.949809474646777,0.06301502480414974
748,77.47034482758622,176.16063085526807,206.39860122189742,9.873425977926637,10.085817439703378,0.05823304738679096
749,50.784000000000006,98.24164364852305,86.52907049513922,9.83535051566413,11.454716330186411,0.10093102521946332
750,71.04524180967239,47.96678863374843,36.772821441245995,9.630057847689962,9.82577121421431,0.06046581042144241
751,68.30490261920752,51.9469360215629,46.22627107346993,9.90317341242507,10.354032189408388,0.06957745619730014
752,77.37625754527164,42.814431644985305,30.052049538576384,10.03081169670005,10.22597542311607,0.056853249311472044
753,62.75196850393702,73.26550956492481,54.71274930829528,9.760650922409429,10.717982636984562,0.081848206951307
754,72.14056224899598,69.10943548636583,70.96558917765384,9.871265003533166,10.214811002704376,0.05793721430435905
755,74.04878048780488,,59.28853754940708,9.982405129811607,14.295047596922297,0.13326821777431647
756,75.49193548387096,38.7049997307088,33.4930358008565,9.812349555042132,10.011883225263068,0.07376225549280323
757,60.04449938195304,114.45138476569606,117.01639897169231,9.723211238138868,10.89586379457786,0.07425340756639753
758,108.61328790459966,262.4918067188258,170.2224846602852,9.802860912472717,10.022953856469313,0.06470989630868035
759,52.45121951219512,59.420143788035205,40.2261157013438,9.909539149569143,10.99689254638275,0.07710545402328875
760,69.47850208044382,53.633754371447395,47.292099706311234,9.828360241401036,10.017961969961716,0.05543130438893897
761,72.39515518546555,102.59062205898022,77.45686369907519,9.707878181971212,9.851277379611767,0.049354297380620984
762,73.40228341168567,71.29454380292191,45.07892618141833,9.904327603314028,10.154901816808518,0.056288830069284916
763,57.948547717842324,66.07853780360006,65.21846677829843,9.83295697403105,10.007019058500282,0.060626137568215346
764,66.31535836177476,42.59414277314819,59.7467420501462,9.78337792871198,12.620373676079453,0.1736400932035482
765,62.3099787685775,39.5256916996048,58.11768129523408,9.821846815423982,10.062864878275118,0.07075124231118769
766,83.07972972972975,34.79608075426682,30.4347164973653,9.65908325870937,9.850625392657134,0.06179888504472838
767,74.62222222222222,37.84296868602127,35.96452846481264,9.702306821295641,9.92296651460792,0.062032472744481475
768,66.47826086956522,116.40860934617129,154.49328725987857,9.933469282399146,10.142963178787035,0.06242385832117023
769,49.853887399463815,55.60587291216777,37.50690630817995,9.674879135564646,9.85858345365735,0.06261758894480732
770,70.93457943925235,32.62149515931453,29.42702252014767,9.744105198847636,9.930234691139269,0.05415202254032771
771,77.56204379562045,36.55353316165088,25.02142109122518,9.852315075988415,10.057105547965712,0.06577892426818797
772,68.45882352941177,117.1820021261299,111.58400467948395,10.010354265428052,10.57114327370478,0.08462646259780968
773,52.775846294602005,51.681673338037086,39.97478437814776,9.772643309553548,9.959537490335785,0.06145591712511161
774,72.61503416856492,132.3001346630836,78.6470258451955,9.941338518373483,10.125292872146362,0.05344010960873374
775,65.29239766081872,39.65066841032007,45.77713847935734,9.767548467247181,10.00041409932117,0.07264467582090327
776,70.29664429530203,40.102739620228625,34.52258503366982,9.982840938919935,10.190427611587197,0.06237689785402626
777,54.14131897711979,67.79903654903543,57.94956277145918,9.825503633165658,10.067363462165503,0.06541413146524522
778,65.13217993079584,90.56473705446325,93.53181659518813,9.830348638811778,10.190670894332445,0.07815851272742379
779,123.7761904761905,133.51816001165048,87.16750319778035,9.620706318340428,9.828850076200697,0.05604731038093594
780,64.71242774566474,72.16370981622738,43.250518902844426,9.975584539596534,10.141545927946801,0.05445954727101798
781,138.35937500000003,216.60757758801398,111.57000880909165,9.995135732116056,10.253978646246546,0.0696797748924399
782,64.05063291139241,72.16370981622741,114.62450592885374,9.72216154678232,10.369921773110033,0.1281292052330343
783,53.299122214719794,67.55967084305202,106.14078733461024,9.847198792311959,10.047317994195868,0.05949212340924685
784,96.8936170212766,312.9775951751645,170.915657214327,9.7737981416356,9.97031278849461,0.06248437884050973
785,69.92122830440589,54.86061480584473,64.22920909851531,9.803784745600653,10.088048846312454,0.08787366902572924
786,66.26595030221625,47.13138346921662,30.000356056051064,9.241863455397176,9.450861271582836,0.061739717451931284
787,83.66062364031906,151.32272005055196,91.06361343353446,9.828731436556252,10.026912471316619,0.05811355070516568
788,69.32437877770316,44.51962938994962,77.03177705780858,9.63827375964557,9.931107887012953,0.05488163524005094
789,68.34106412005458,78.74198345113248,44.86362630333699,9.769713454518287,9.98241059259793,0.06786732815269203
790,64.67227505486467,116.67245898000503,95.17010088137692,9.760303551965505,9.918675772113097,0.05163426707009392
791,47.86486486486487,85.9929848331,70.22306834623615,9.655142237740773,9.859073831740899,0.06853015546318418
792,57.53058510638298,50.10795976651282,68.96087589183449,9.885053834944722,10.2715725729106,0.06818534075890177
793,55.08973487423522,114.14803280890904,98.18642099174605,9.91320650826229,10.1440347356469,0.0734124527494145
794,116.76923076923077,337.1932514379375,174.22076364247897,9.582437107741589,9.760940050096393,0.06158819687057087
795,61.29205921938089,45.73693090024335,28.28841970169161,9.90194579545615,10.775871618492461,0.08028983349246493
796,67.53386454183268,42.13452892403364,37.62661487605913,9.75109942874044,9.91879533522601,0.05489145791306088
797,56.672,112.55519985017149,77.88319720007748,9.826673723429062,10.056632654618088,0.058491462502440375
798,49.099730458221025,80.09570056940997,73.87240280634323,9.810333565845973,10.075998607800381,0.05839299708058808
799,85.4638069705094,41.83905886875122,26.316829388499087,10.133909204989152,10.344439372362137,0.06787723860747268
800,61.62060889929743,77.45422111567363,86.67581150904412,9.945356014850269,11.123406599728302,0.0812674773673724
801,95.96551724137932,302.41277338671836,212.73101136350243,9.876193479724135,10.073315795875843,0.06342786046207201
802,58.00218340611355,57.67274195026719,48.62574848472272,9.714056997523514,10.007214663240942,0.07164889532776265
803,65.38202247191013,200.43183906605145,137.39471449600745,9.681163428748249,9.907345082709934,0.07780466702728127
804,77.42818791946308,37.35822629448703,30.128455082089122,9.73676113848133,9.952660771608864,0.06446785995277843
805,50.36018957345972,51.02744856663264,61.85460841390922,9.819993966381706,10.035855489348693,0.0631381282676257
806,109.21428571428572,340.59428557989634,126.32806618438033,9.742258695841631,9.930539122056798,0.05598827182746644
807,51.71543086172345,58.891954251981595,48.77046492304821,9.777944195239678,10.007168104653049,0.06919575018145453
808,54.693405846363014,78.28758400476578,117.17813015975749,9.779553814511788,10.343594565454072,0.07453460113311708
809,55.498984427894385,129.05230561256457,115.15016028750412,10.101146433190909,10.640969942694072,0.10516371740803981
810,64.21497919556171,57.30127897191156,68.28549758407424,9.876277079883861,10.109840361875507,0.0672711112526727
811,67.5897810218978,46.02549484107366,74.23056303567513,9.937122055210823,10.538779479312678,0.08396651101876915
812,72.40669456066945,55.897769263758676,51.276559315820386,9.732581856122872,12.45307166083495,0.21259320136635823
813,60.720000000000006,63.138802354643495,45.44653475218502,9.910819524644538,10.135662402840627,0.056673431017325256
814,75.01744186046513,183.69881483987746,105.47590069485007,9.738140508977168,9.922518171696018,0.062445103760039145
815,92.31607629427792,39.18690194860632,25.29431556744812,9.679215818165513,11.18064590730697,0.08839401034593523
816,70.65159574468086,41.20838222471831,32.5545687304338,9.794808764684115,10.012669244047286,0.06451544264393852
817,63.72105619498985,65.74426851053835,45.19140277558915,9.782444336544165,9.976715795265955,0.06545805812768779
818,66.0,55.67191876736144,44.19106674900767,9.691653610157303,9.84685567841458,0.04569541030690326
819,79.76146788990826,100.13490422509277,83.01986109704507,10.047577521794768,10.763532728907371,0.0924850267802371
820,53.08406186953599,40.67160121956732,36.57224604353728,9.983765466836829,10.17554534726565,0.060396814966609695
821,57.83896477354422,42.15104903010819,37.54109314237666,9.643040843658959,10.12070427509953,0.06361519993125823
822,81.4831013916501,49.6043493992535,37.49450585526482,9.710566347233007,9.897455783627697,0.06108653044441422
823,69.15459297983571,30.074541907220613,28.10990988593771,9.84623422655088,10.046852191203977,0.06817920627331263
824,50.4969450101833,70.79771166075322,54.39933951790713,9.716504225729945,9.884743789005451,0.05534261902177267
825,77.6888888888889,69.216998875171,96.91131948724484,9.816726090154976,10.033666828798339,0.06385855128123559
826,65.44923504867874,71.62043702201258,68.76851490583606,9.827253506118572,10.021587979014935,0.062160858772719166
827,49.471698113207545,66.21528584775616,67.92106393723533,10.107127071473236,10.336500515997535,0.06026179688842009
828,77.18644067796612,256.15575883035024,178.3285830375613,9.797821488159947,9.980311683431907,0.06366954310158528
829,72.5862785862786,37.71438194425013,41.88368313096386,9.77964094597903,10.025720674997151,0.08521094234382053
830,60.72,276.67984189723313,183.27309279635776,9.932436133647288,11.568213026582352,0.10127273907211881
831,62.43964935940661,37.14854329346955,27.291440016396947,9.710296953123601,9.912365744513822,0.06225180409272645
832,69.48591549295776,55.67191876736146,58.1033952476315,9.796930951884228,10.044819900602267,0.07261137528616503
833,77.52553542009885,69.04816083680164,39.87376200717045,9.89490545843314,11.79408800139488,0.15627193428630323
834,76.1029411764706,25.99193475183515,22.259512075829125,9.785872293442393,10.803091614067045,0.08639438966890542
835,57.67164179104477,63.73326283239956,66.43673984048611,9.80343239786003,9.980579879668458,0.058525375158198445
836,61.814419225634175,59.50771958174556,59.245147155640346,9.79494788517634,10.074872503422302,0.056700842584662764
837,85.84830339321357,51.75127831683615,42.53236020378191,9.841931940827465,10.072740779115273,0.06470342744329372
838,58.62620689655172,80.14179881815838,49.366765810405745,9.638181108899433,9.813526840463094,0.05648888644145226
839,62.00136147038801,69.99053886442928,45.91997870314482,9.87061249067218,10.08125048917564,0.05677918855916298
840,64.80607814761215,62.71840737301823,59.657364134503084,10.438030608352427,10.646634526995602,0.06359545958668449
841,62.65087956698241,43.597871166730705,28.977748687873913,9.728069853759965,9.944323581263069,0.06905781008682052
842,72.43568464730293,188.37749652865355,178.47683292616904,9.953125439456695,10.151521750342658,0.06552158115374093
843,65.64324324324325,71.64640056719094,67.20094124869287,9.68304351997546,9.874513603102477,0.06400905563409395
844,68.23651452282158,95.65824023770419,65.78596940735065,9.839941945368038,10.053699863452342,0.06332661233166492
845,66.71325648414987,66.69727856717967,49.92253038102304,9.9123890328581,10.143252969635753,0.06644763599471802
846,74.1439588688946,167.51405246714936,152.74272831937276,9.896493822633824,10.087572295244993,0.056722429090173894
847,70.76599634369286,76.00528873716009,76.01456923344477,9.572473365432236,9.797474227920203,0.0667303726701597
848,70.10843373493975,63.949186419321364,41.38716129504137,9.930268199230216,10.17124167539711,0.06498569412694169
849,65.36842105263159,67.13838578105938,93.28117591285218,9.899492911061815,10.18127718493899,0.05350953964864844
850,78.8834110592938,30.216236646499542,26.990724608464127,9.955832733617049,10.238820102011148,0.07091037975366193
851,83.4289544235925,41.19820605905517,26.506752308623394,9.79391004299899,9.99083090391718,0.05988575474264586
852,67.64888588791356,58.007856577497435,62.733314339845066,9.910852722190624,10.091970155114309,0.061379669485981996
853,71.12449799196787,31.56321776698382,25.776876816517962,9.801090390729874,10.060999080859478,0.0629704803508505
854,57.31813576494428,207.7579548089203,138.6802759883436,9.866249975953124,10.0922736076819,0.05444964427646093
855,65.33422999327506,46.71437472610898,45.143174107150415,9.899972663556591,10.213191253403554,0.06250983887164688
856,66.08979591836736,43.12606526403008,36.28564926276772,9.922110783521864,10.128980652635962,0.06698104453785014
857,59.56779661016951,60.96831561695072,58.98538182281371,9.883856152629951,10.156505141553021,0.0769187322857987
858,51.81691233514352,61.72875963976525,93.29903282594053,9.773631861217739,10.020924646855105,0.07606356797204583
859,57.454183266932276,48.98179438988552,36.98021392683828,9.718692697748592,9.91210501697876,0.0657884797744908
860,77.01477501678978,70.52236296092691,53.11111593124718,9.818067840941918,10.007984815274813,0.06149022827381051
861,55.343750000000014,50.48746036826125,61.68255075540724,10.077221457579817,11.244117692818529,0.10564997820738548
862,69.20627802690582,41.88244607320293,31.0886814900412,9.884531425038505,10.039964633793252,0.04798717169459587
863,58.85294117647059,50.215288787827966,42.00909092932383,10.1166265135253,10.349701913735593,0.06728495259586634
864,77.81115107913668,77.0036614866577,115.68078480627842,9.71064290413845,9.88424556103754,0.055189740968195566
865,84.50301810865191,50.14868139839951,60.56712451291832,9.83368562654382,10.049249147307409,0.0621865487639561
866,67.84923282188126,35.75233334914188,35.376471831903565,9.540346614216228,9.683849510740357,0.054442006070267786
867,90.55093833780164,52.79441342046395,48.8681252510687,9.849855597512148,10.124137682190916,0.07599930730653182
868,66.30889235569423,87.3945926312358,93.49863372832233,9.821592862393246,10.037528739887192,0.05902561621658127
869,70.64285714285715,74.99472711861766,63.43160768116964,9.71665329701498,9.956167296910083,0.06578574916170192
870,75.971671388102,133.16111089267204,119.81125338701739,9.625257404221022,9.853665983014135,0.06714713188836459
871,64.57393652937206,36.198060860839945,26.230685689650382,9.780056354525541,9.963709930358895,0.05474472611670437
872,76.00133511348466,33.76451368289523,34.74266081443903,9.789510245528056,10.02099942389714,0.07611255744433258
873,54.50381679389313,46.23352799397814,56.61423166890421,9.79997686162362,10.021188828005563,0.0756832242972226
874,78.59467455621305,46.06411944142521,49.79199928864733,9.706066472046404,11.03678744038915,0.08881310865695796
875,56.78557114228456,39.52569169960461,26.39978008083706,9.63820098476815,9.855526080406786,0.07215859114280278
876,62.66666666666666,106.48437634329945,88.10864196464506,9.820911791012815,10.02137108679947,0.06058505978787531
877,71.55555555555559,44.450254113706485,31.966527057522658,9.838093945640473,10.00953030421231,0.05233638195779333
878,64.14084507042253,104.57515063496405,99.17953263624256,9.767052002272548,10.24708188942598,0.07131431312298836
879,62.0787037037037,44.964146956088655,34.820247684178575,9.710790186620942,10.792732173046744,0.079047603665417
880,96.62833675564683,64.85475526817132,42.428430980418526,9.886025835762311,10.091604141875772,0.05907755681728971
881,50.78007117437723,112.74431541313136,82.44101208074994,9.753010301442048,9.926037436337703,0.05991347691443237
882,52.46280991735539,119.37773966415608,90.43420498113973,9.780507749205334,10.017358698280182,0.06347728357601913
883,,,,9.933749561362182,11.996007609655434,0.1310535902905175
884,59.970370370370375,95.00793874740422,65.12562414260904,9.71600282085231,15.702846946490842,0.21826566112038043
885,63.60335195530727,115.71937623895646,128.17271680648545,9.850824392386134,10.293722169884765,0.07774763907625204
886,85.45777777777779,66.69452151290048,43.425474818281884,9.885663721215968,10.426342279831955,0.06785788683332962
887,86.25000000000001,63.52866113961104,49.33032861334886,9.766804841067708,10.295417674574795,0.08869201845066566
888,77.75121951219512,42.90989314955014,76.12929951498847,10.012036806109533,10.272268002926957,0.07124893518020532
889,47.860178204249486,64.4534355539062,69.76911032410351,9.81166930618024,10.040561201168435,0.06550747848636239
890,65.11029411764706,118.80401707695736,88.01340606843011,9.748449317474385,9.972376626260349,0.07298588109381776
891,64.42440318302387,42.5471656520132,31.150000525984396,9.850417516104994,10.013287164746641,0.05713809366283416
892,73.43393501805053,42.17340440109384,27.645270518223068,9.754392408911333,9.92252228304062,0.0530864206333063
893,62.48178137651822,27.47912202188962,25.14560735039495,9.937703767676407,10.181047807488344,0.0728258915048714
894,77.15109890109889,60.55591670240527,49.10520215601413,9.748012148207888,10.004036524465475,0.060252199810217975
895,97.38113207547171,208.61607229713337,177.8314175863561,9.808539950873605,10.026373410892598,0.06425628429998614
896,75.10344827586205,47.50396937370209,50.33393553587422,9.751888360475393,9.947789086666715,0.06971265583335419
897,78.73979591836738,147.39246699299082,85.02389483446596,9.78043773671154,9.995720633630294,0.059213838324256994
898,88.1303317535545,156.5858277207472,144.23872809806568,9.794054591318938,10.016471299915203,0.06689217880119258
899,81.97200000000002,129.14078460636,103.66954282743501,9.68552535980672,9.91202573596421,0.06463057528607793
900,85.36178861788618,90.11104316505575,55.576339676728075,9.662716376060072,9.847480369846636,0.06493047384252097
901,46.92741935483871,91.84940741993876,69.55183483364175,9.8016148764876,9.993991758252164,0.07143729994865224
902,68.30490261920752,47.91741467456583,35.366632735111445,9.783367456162154,9.960296095558155,0.07085011275853774
903,81.64755838641189,66.42579517731232,67.91110761065443,9.753402820017731,9.966082502362289,0.062307073349261846
904,57.54935622317597,81.82595565324358,53.87107557120799,9.85805504522413,10.05119409928119,0.06291048638740111
905,68.20149761742682,46.50975536873932,84.63640231317007,9.618040069970812,9.845305225819653,0.06937280342418128
906,86.19152542372882,89.84309418304254,51.083117576046874,9.857807077977235,10.08978735382247,0.0704862181153996
907,55.34908845374747,78.49006470061187,70.3783655632345,10.064186372706239,10.35412453709648,0.07577124427966762
908,66.08841259209645,29.644268774703527,30.982643241975026,9.96452941278556,10.148479708258437,0.05919662496251873
909,75.9,52.28757531748202,47.82912011885211,9.835237097313197,11.438959327795068,0.13067195201977586
910,71.52879581151834,34.982656251256266,24.843453006114974,9.817764539294911,10.070143664690033,0.06771972074571471
911,65.36842105263159,76.9798078039686,61.16990899070759,9.939905574138715,10.432021115244611,0.060099697931378676
912,66.62390276839973,40.74215045076734,28.156489882128817,9.86446377093867,10.080899492798753,0.06172994016183687
913,83.96017699115046,51.75127831683614,44.60627977759964,9.773149740282511,10.30162965970127,0.08000860033089208
914,46.77733598409543,108.41724693329319,142.98452907179586,9.865562589205295,10.124092297542473,0.060263701401708614
915,51.387948544346656,152.24696513509616,132.09152641598092,10.054096421286308,10.298055343660778,0.06945474286224478
916,86.34495412844039,278.2710242019078,170.9005587647093,9.7326656341762,10.51683520454608,0.10878860841976869
917,65.55465587044534,68.82177789867204,59.378534297045036,9.781881296340927,10.098836701392816,0.06973985563924937
918,73.21875000000001,59.04937345409474,72.95954985428212,9.937639824722247,10.6506926856116,0.06718449943255693
919,69.55466237942125,65.77472682512594,49.734196177910256,9.620280191654876,10.701545231834777,0.14458234787926091
920,59.14285714285713,49.19352421160461,102.62030255202392,9.697214068397065,9.86793549020096,0.05209230088529499
921,49.62258543833582,111.96177733834334,100.88318463073271,9.694800265455143,10.136972736746122,0.054669358499849954
922,59.113886847905945,76.32826236005579,68.57820229739818,9.820435157230735,10.421835687780359,0.07206171018365252
923,121.18487394957985,187.25520953296305,159.32976192108683,9.831422299211617,10.11977275551354,0.05631003018990027
924,79.7923076923077,158.25708871587912,116.95533073259463,9.826322836921896,10.177974227517826,0.06737303306247862
925,63.711678832116775,51.02744856663261,68.11452546006673,9.798950830593181,10.727343763725003,0.12250178935757419
926,80.27884615384616,309.7160161922487,161.17615157747613,9.969389345913445,10.161342687002948,0.054613821816123384
927,70.62845583277141,87.05300314656189,64.06039323569578,9.893908002359934,10.132008417447194,0.0694595827113062
928,82.72479564032697,94.51475368022102,60.30097352724252,9.814798921487183,10.011364587772885,0.06257937178900985
929,64.08774834437087,110.38924935785725,90.77258471395068,9.756083242945397,10.08765565960659,0.06914123018866895
930,56.26563706563706,76.77276543018864,139.85840424316316,9.761441504234034,9.90775279311559,0.05551944711976151
